Method,Model,Sample_Index,Original_Class,Counterfactual_Class,Generation_Time,Tp_Sparsity,Seg_Sparsity,DTW,L1,L2,CF_Conf,Orig_Rob_Gauss_eps0.00,Orig_Conf_Gauss_eps0.00,Orig_Rob_Adv_eps0.00,Orig_Conf_Adv_eps0.00,CF_Rob_Gauss_eps0.00,CF_Conf_Gauss_eps0.00,CF_Rob_Adv_eps0.00,CF_Conf_Adv_eps0.00,Orig_Rob_Gauss_eps0.20,Orig_Conf_Gauss_eps0.20,Orig_Rob_Adv_eps0.20,Orig_Conf_Adv_eps0.20,CF_Rob_Gauss_eps0.20,CF_Conf_Gauss_eps0.20,CF_Rob_Adv_eps0.20,CF_Conf_Adv_eps0.20,Orig_Rob_Gauss_eps0.40,Orig_Conf_Gauss_eps0.40,Orig_Rob_Adv_eps0.40,Orig_Conf_Adv_eps0.40,CF_Rob_Gauss_eps0.40,CF_Conf_Gauss_eps0.40,CF_Rob_Adv_eps0.40,CF_Conf_Adv_eps0.40,Orig_Rob_Gauss_eps0.60,Orig_Conf_Gauss_eps0.60,Orig_Rob_Adv_eps0.60,Orig_Conf_Adv_eps0.60,CF_Rob_Gauss_eps0.60,CF_Conf_Gauss_eps0.60,CF_Rob_Adv_eps0.60,CF_Conf_Adv_eps0.60,Orig_Rob_Gauss_eps0.80,Orig_Conf_Gauss_eps0.80,Orig_Rob_Adv_eps0.80,Orig_Conf_Adv_eps0.80,CF_Rob_Gauss_eps0.80,CF_Conf_Gauss_eps0.80,CF_Rob_Adv_eps0.80,CF_Conf_Adv_eps0.80,Orig_Rob_Gauss_eps1.00,Orig_Conf_Gauss_eps1.00,Orig_Rob_Adv_eps1.00,Orig_Conf_Adv_eps1.00,CF_Rob_Gauss_eps1.00,CF_Conf_Gauss_eps1.00,CF_Rob_Adv_eps1.00,CF_Conf_Adv_eps1.00,Orig_Rob_Gauss_eps1.20,Orig_Conf_Gauss_eps1.20,Orig_Rob_Adv_eps1.20,Orig_Conf_Adv_eps1.20,CF_Rob_Gauss_eps1.20,CF_Conf_Gauss_eps1.20,CF_Rob_Adv_eps1.20,CF_Conf_Adv_eps1.20,Orig_Rob_Gauss_eps1.40,Orig_Conf_Gauss_eps1.40,Orig_Rob_Adv_eps1.40,Orig_Conf_Adv_eps1.40,CF_Rob_Gauss_eps1.40,CF_Conf_Gauss_eps1.40,CF_Rob_Adv_eps1.40,CF_Conf_Adv_eps1.40,Orig_Rob_Gauss_eps1.60,Orig_Conf_Gauss_eps1.60,Orig_Rob_Adv_eps1.60,Orig_Conf_Adv_eps1.60,CF_Rob_Gauss_eps1.60,CF_Conf_Gauss_eps1.60,CF_Rob_Adv_eps1.60,CF_Conf_Adv_eps1.60,Orig_Rob_Gauss_eps1.80,Orig_Conf_Gauss_eps1.80,Orig_Rob_Adv_eps1.80,Orig_Conf_Adv_eps1.80,CF_Rob_Gauss_eps1.80,CF_Conf_Gauss_eps1.80,CF_Rob_Adv_eps1.80,CF_Conf_Adv_eps1.80,Orig_Rob_Gauss_eps2.00,Orig_Conf_Gauss_eps2.00,Orig_Rob_Adv_eps2.00,Orig_Conf_Adv_eps2.00,CF_Rob_Gauss_eps2.00,CF_Conf_Gauss_eps2.00,CF_Rob_Adv_eps2.00,CF_Conf_Adv_eps2.00
COMTE,LSTMFCN,37,1,0,92.9953,0.0,0.0,1.9962,38.557,5.3916,0.9752,1.0,0.9655,0.0,0.0047,1.0,0.9752,1.0,0.9995,1.0,0.9732,0.0,0.0027,1.0,0.9835,1.0,0.9959,1.0,0.9992,0.0,0.0038,0.0,0.256,1.0,0.9617,1.0,1.0,0.0,0.0102,0.0,0.0608,0.0,0.2966,1.0,1.0,0.0,0.046,0.0,0.0002,0.0,0.0115,1.0,1.0,0.0,0.1557,0.0,0.0,0.0,0.0011,1.0,1.0,0.0,0.3504,0.0,0.0,0.0,0.0002,1.0,1.0,0.0,0.478,0.0,0.0,0.0,0.0001,1.0,1.0,1.0,0.5628,0.0,0.0,0.0,0.0001,1.0,1.0,1.0,0.5685,0.0,0.0,0.0,0.0001,1.0,1.0,1.0,0.5749,0.0,0.0,0.0,0.0001
COMTE,LSTMFCN,62,1,0,79.8126,0.0,0.0,4.4891,43.8854,6.834,0.7961,1.0,0.9988,0.0,0.0104,1.0,0.7961,1.0,0.9998,1.0,0.9993,0.0,0.0048,1.0,0.7278,1.0,0.999,1.0,0.9999,0.0,0.0035,0.0,0.2175,1.0,0.9957,1.0,1.0,0.0,0.0032,0.0,0.0841,1.0,0.9803,1.0,1.0,0.0,0.0027,0.0,0.0002,1.0,0.881,1.0,1.0,0.0,0.0019,0.0,0.0,0.0,0.4384,1.0,1.0,0.0,0.0018,0.0,0.0,0.0,0.1117,1.0,1.0,0.0,0.0014,0.0,0.0,0.0,0.0293,1.0,1.0,0.0,0.0012,0.0,0.0,0.0,0.0079,1.0,1.0,0.0,0.0019,0.0,0.0,0.0,0.0022,1.0,1.0,0.0,0.0059,0.0,0.0,0.0,0.0007
COMTE,LSTMFCN,26,0,1,104.9696,0.0208,0.0,1.423,21.5514,2.8764,0.6701,1.0,0.9115,1.0,0.9999,1.0,0.6701,0.0,0.0002,1.0,0.8383,1.0,0.9998,1.0,0.8289,0.0,0.0001,1.0,0.8015,1.0,0.9995,1.0,0.7073,0.0,0.0001,0.0,0.0332,1.0,0.9981,1.0,0.7509,0.0,0.0001,0.0,0.0087,1.0,0.9886,1.0,0.9996,0.0,0.0001,0.0,0.0,1.0,0.9341,1.0,1.0,0.0,0.0001,0.0,0.0,1.0,0.6961,1.0,1.0,0.0,0.0001,0.0,0.0,0.0,0.3864,1.0,1.0,0.0,0.0002,0.0,0.0,0.0,0.182,1.0,1.0,0.0,0.0004,0.0,0.0,0.0,0.1158,1.0,1.0,0.0,0.0019,0.0,0.0,0.0,0.1239,1.0,1.0,0.0,0.0228
COMTE,LSTMFCN,41,1,0,86.2204,0.0,0.0,1.6343,41.0506,5.1093,0.8647,1.0,0.6131,0.0,0.0011,1.0,0.8647,1.0,0.9997,1.0,0.6527,0.0,0.0008,1.0,0.8702,1.0,0.9989,1.0,0.7127,0.0,0.0007,1.0,0.9071,1.0,0.9971,1.0,0.9031,0.0,0.0006,0.0,0.1654,1.0,0.9907,1.0,1.0,0.0,0.0006,0.0,0.0018,1.0,0.9756,1.0,1.0,0.0,0.0007,0.0,0.0002,1.0,0.9241,1.0,1.0,0.0,0.0011,0.0,0.0,1.0,0.7096,1.0,1.0,0.0,0.0006,0.0,0.0,0.0,0.3238,1.0,1.0,0.0,0.0005,0.0,0.0,0.0,0.0935,1.0,1.0,0.0,0.0005,0.0,0.0,0.0,0.0277,1.0,1.0,0.0,0.0008,0.0,0.0,0.0,0.0089
COMTE,LSTMFCN,35,1,0,74.5712,0.0,0.1,2.0095,30.0821,3.6589,0.9872,1.0,0.5876,0.0,0.0002,1.0,0.9872,1.0,1.0,1.0,0.5852,0.0,0.0,1.0,0.9785,1.0,0.9999,1.0,0.9569,0.0,0.0,1.0,0.7691,1.0,0.9998,1.0,0.8402,0.0,0.0,1.0,0.6895,1.0,0.9982,1.0,0.9996,0.0,0.0,0.0,0.052,1.0,0.9678,1.0,1.0,0.0,0.0,0.0,0.0,1.0,0.535,1.0,1.0,0.0,0.0,0.0,0.0,0.0,0.0774,1.0,1.0,0.0,0.0001,0.0,0.0,0.0,0.0164,1.0,1.0,0.0,0.0001,0.0,0.0,0.0,0.0051,1.0,1.0,0.0,0.0003,0.0,0.0,0.0,0.0023,1.0,1.0,0.0,0.0011,0.0,0.0,0.0,0.0014
COMTE,LSTMFCN,25,1,0,66.3614,0.0104,0.0,5.293,50.9272,7.0235,0.7953,1.0,0.9967,0.0,0.0021,1.0,0.7953,1.0,0.9979,1.0,0.9983,0.0,0.0015,1.0,0.6785,1.0,0.9905,1.0,0.9999,0.0,0.0014,0.0,0.3342,1.0,0.8175,1.0,0.9999,0.0,0.0014,0.0,0.0782,0.0,0.0633,1.0,1.0,0.0,0.0024,0.0,0.0006,0.0,0.0038,1.0,1.0,0.0,0.0093,0.0,0.0,0.0,0.0007,1.0,1.0,0.0,0.0366,0.0,0.0,0.0,0.0003,1.0,1.0,0.0,0.1545,0.0,0.0,0.0,0.0002,1.0,1.0,0.0,0.3622,0.0,0.0,0.0,0.0001,1.0,1.0,1.0,0.5756,0.0,0.0,0.0,0.0,1.0,1.0,1.0,0.8214,0.0,0.0,0.0,0.0
COMTE,LSTMFCN,36,1,0,72.0918,0.0104,0.0,2.6664,40.0678,6.1751,0.7961,1.0,0.9727,0.0,0.0031,1.0,0.7961,1.0,0.9998,1.0,0.9777,0.0,0.0014,1.0,0.8406,1.0,0.999,1.0,0.9979,0.0,0.0011,1.0,0.5844,1.0,0.9957,1.0,0.9999,0.0,0.0013,0.0,0.0944,1.0,0.9803,1.0,0.9999,0.0,0.0029,0.0,0.0,1.0,0.881,1.0,1.0,0.0,0.0076,0.0,0.0,0.0,0.4384,1.0,1.0,0.0,0.0139,0.0,0.0,0.0,0.1117,1.0,1.0,0.0,0.0298,0.0,0.0,0.0,0.0293,1.0,1.0,0.0,0.0627,0.0,0.0,0.0,0.0079,1.0,1.0,0.0,0.1489,0.0,0.0,0.0,0.0022,1.0,1.0,1.0,0.5235,0.0,0.0,0.0,0.0007
COMTE,LSTMFCN,77,1,0,71.0303,0.0208,0.0,1.7945,33.7342,4.4107,0.8308,1.0,0.9706,0.0,0.0003,1.0,0.8308,1.0,0.9998,1.0,0.9758,0.0,0.0001,1.0,0.7175,1.0,0.9993,1.0,0.9941,0.0,0.0,1.0,0.6691,1.0,0.9926,1.0,0.9729,0.0,0.0,0.0,0.0516,1.0,0.8658,1.0,0.9986,0.0,0.0001,0.0,0.0391,0.0,0.0767,1.0,1.0,0.0,0.0001,0.0,0.0,0.0,0.0015,1.0,1.0,0.0,0.0002,0.0,0.0,0.0,0.0001,1.0,1.0,0.0,0.0005,0.0,0.0,0.0,0.0,1.0,1.0,0.0,0.0012,0.0,0.0,0.0,0.0,1.0,1.0,0.0,0.0033,0.0,0.0,0.0,0.0,1.0,1.0,0.0,0.0084,0.0,0.0,0.0,0.0
COMTE,LSTMFCN,21,1,0,72.0521,0.0,0.0,2.1956,37.8934,5.5642,0.9774,1.0,0.9991,0.0,0.0298,1.0,0.9774,1.0,0.9997,1.0,0.9978,0.0,0.0048,1.0,0.9715,1.0,0.9965,1.0,0.9993,0.0,0.0015,1.0,0.8417,1.0,0.9717,1.0,1.0,0.0,0.0011,0.0,0.0,0.0,0.4882,1.0,1.0,0.0,0.0012,0.0,0.0,0.0,0.0219,1.0,1.0,0.0,0.0011,0.0,0.0,0.0,0.0019,1.0,1.0,0.0,0.0005,0.0,0.0,0.0,0.0004,1.0,1.0,0.0,0.0002,0.0,0.0,0.0,0.0001,1.0,1.0,0.0,0.0001,0.0,0.0,0.0,0.0,1.0,1.0,0.0,0.0001,0.0,0.0,0.0,0.0,1.0,1.0,0.0,0.0002,0.0,0.0,0.0,0.0
COMTE,LSTMFCN,50,1,0,61.2225,0.0104,0.0,3.2597,42.3099,5.6313,0.7961,1.0,0.9992,0.0,0.0157,1.0,0.7961,1.0,0.9998,1.0,0.9994,0.0,0.0056,1.0,0.7806,1.0,0.999,1.0,0.9999,0.0,0.0027,0.0,0.3221,1.0,0.9957,1.0,1.0,0.0,0.0032,0.0,0.011,1.0,0.9803,1.0,1.0,0.0,0.006,0.0,0.0001,1.0,0.881,1.0,1.0,0.0,0.0152,0.0,0.022,0.0,0.4384,1.0,1.0,0.0,0.0287,0.0,0.0,0.0,0.1117,1.0,1.0,0.0,0.0457,0.0,0.0,0.0,0.0293,1.0,1.0,0.0,0.1384,0.0,0.0,0.0,0.0079,1.0,1.0,0.0,0.4784,0.0,0.0,0.0,0.0022,1.0,1.0,1.0,0.8781,0.0,0.0,0.0,0.0007
COMTE,LSTMFCN,69,1,0,63.4448,0.0208,0.0,2.7783,44.0199,5.8356,0.9752,1.0,0.9977,0.0,0.0043,1.0,0.9752,1.0,0.9995,1.0,0.999,0.0,0.0025,1.0,0.8057,1.0,0.9959,1.0,0.9993,0.0,0.0016,1.0,0.814,1.0,0.9617,1.0,0.9999,0.0,0.0015,0.0,0.4525,0.0,0.2966,1.0,1.0,0.0,0.0017,0.0,0.0,0.0,0.0115,1.0,1.0,0.0,0.0011,0.0,0.0,0.0,0.0011,1.0,1.0,0.0,0.0007,0.0,0.0,0.0,0.0002,1.0,1.0,0.0,0.0008,0.0,0.0,0.0,0.0001,1.0,1.0,0.0,0.0012,0.0,0.0,0.0,0.0001,1.0,1.0,0.0,0.0032,0.0,0.0,0.0,0.0001,1.0,1.0,0.0,0.0106,0.0,0.0,0.0,0.0001
COMTE,LSTMFCN,96,1,0,60.0908,0.0,0.0,1.6066,34.316,4.4276,0.9774,1.0,0.9883,0.0,0.0022,1.0,0.9774,1.0,0.9997,1.0,0.993,0.0,0.0005,1.0,0.9035,1.0,0.9965,1.0,0.9988,0.0,0.0002,0.0,0.4881,1.0,0.9717,1.0,0.9836,0.0,0.0002,0.0,0.1133,0.0,0.4882,1.0,1.0,0.0,0.0001,0.0,0.0,0.0,0.0219,1.0,1.0,0.0,0.0,0.0,0.0,0.0,0.0019,1.0,1.0,0.0,0.0,0.0,0.0,0.0,0.0004,1.0,1.0,0.0,0.0,0.0,0.0,0.0,0.0001,1.0,1.0,0.0,0.0,0.0,0.0,0.0,0.0,1.0,1.0,0.0,0.0,0.0,0.0,0.0,0.0,1.0,1.0,0.0,0.0,0.0,0.0,0.0,0.0
COMTE,LSTMFCN,78,1,0,58.2373,0.0,0.0,2.9513,42.8123,5.5521,0.9752,1.0,0.9994,0.0,0.0068,1.0,0.9752,1.0,0.9995,1.0,0.9991,0.0,0.0035,1.0,0.9635,1.0,0.9959,1.0,0.9998,0.0,0.0029,0.0,0.0124,1.0,0.9617,1.0,1.0,0.0,0.0027,0.0,0.0063,0.0,0.2966,1.0,1.0,0.0,0.0033,0.0,0.0,0.0,0.0115,1.0,1.0,0.0,0.0078,0.0,0.0,0.0,0.0011,1.0,1.0,0.0,0.0157,0.0,0.0,0.0,0.0002,1.0,1.0,0.0,0.0223,0.0,0.0,0.0,0.0001,1.0,1.0,0.0,0.0356,0.0,0.0,0.0,0.0001,1.0,1.0,0.0,0.0921,0.0,0.0,0.0,0.0001,1.0,1.0,0.0,0.35,0.0,0.0,0.0,0.0001
COMTE,LSTMFCN,72,1,0,54.7929,0.0208,0.0,1.7904,27.8857,3.8255,0.9774,1.0,0.9532,0.0,0.0107,1.0,0.9774,1.0,0.9997,1.0,0.9527,0.0,0.0014,1.0,0.9453,1.0,0.9965,1.0,0.9995,0.0,0.0002,0.0,0.1732,1.0,0.9717,1.0,0.9998,0.0,0.0,0.0,0.0001,0.0,0.4882,1.0,1.0,0.0,0.0,0.0,0.0,0.0,0.0219,1.0,1.0,0.0,0.0,0.0,0.0,0.0,0.0019,1.0,1.0,0.0,0.0,0.0,0.0,0.0,0.0004,1.0,1.0,0.0,0.0,0.0,0.0,0.0,0.0001,1.0,1.0,0.0,0.0,0.0,0.0,0.0,0.0,1.0,1.0,0.0,0.0,0.0,0.0,0.0,0.0,1.0,1.0,0.0,0.0,0.0,0.0,0.0,0.0
COMTE,LSTMFCN,5,1,0,54.8597,0.0104,0.0,3.1967,45.0263,5.7231,0.9752,1.0,0.9967,0.0,0.0033,1.0,0.9752,1.0,0.9995,1.0,0.9934,0.0,0.0019,1.0,0.9218,1.0,0.9959,1.0,0.9998,0.0,0.0014,1.0,0.6394,1.0,0.9617,1.0,1.0,0.0,0.0011,0.0,0.1013,0.0,0.2966,1.0,1.0,0.0,0.001,0.0,0.0,0.0,0.0115,1.0,1.0,0.0,0.0008,0.0,0.0,0.0,0.0011,1.0,1.0,0.0,0.0004,0.0,0.0,0.0,0.0002,1.0,1.0,0.0,0.0002,0.0,0.0,0.0,0.0001,1.0,1.0,0.0,0.0002,0.0,0.0,0.0,0.0001,1.0,1.0,0.0,0.0003,0.0,0.0,0.0,0.0001,1.0,1.0,0.0,0.001,0.0,0.0,0.0,0.0001
COMTE,LSTMFCN,40,1,0,55.6981,0.0,0.0,3.0659,44.9833,5.8288,0.9752,1.0,0.9996,0.0,0.0192,1.0,0.9752,1.0,0.9995,1.0,0.9997,0.0,0.009,1.0,0.9842,1.0,0.9959,1.0,0.9999,0.0,0.0071,0.0,0.361,1.0,0.9617,1.0,0.9999,0.0,0.0068,0.0,0.0171,0.0,0.2966,1.0,1.0,0.0,0.0133,0.0,0.0134,0.0,0.0115,1.0,1.0,0.0,0.0435,0.0,0.0,0.0,0.0011,1.0,1.0,0.0,0.1262,0.0,0.0,0.0,0.0002,1.0,1.0,0.0,0.2445,0.0,0.0,0.0,0.0001,1.0,1.0,0.0,0.4524,0.0,0.0,0.0,0.0001,1.0,1.0,1.0,0.7675,0.0,0.0,0.0,0.0001,1.0,1.0,1.0,0.9457,0.0,0.0,0.0,0.0001
COMTE,LSTMFCN,11,1,0,57.2315,0.0,0.0,4.9935,44.0842,6.783,0.7953,1.0,0.9605,0.0,0.0009,1.0,0.7953,1.0,0.9979,1.0,0.982,0.0,0.0004,1.0,0.774,1.0,0.9905,1.0,0.9988,0.0,0.0004,0.0,0.3445,1.0,0.8175,1.0,1.0,0.0,0.0004,0.0,0.0059,0.0,0.0633,1.0,1.0,0.0,0.0007,0.0,0.0,0.0,0.0038,1.0,1.0,0.0,0.0013,0.0,0.0,0.0,0.0007,1.0,1.0,0.0,0.0028,0.0,0.0,0.0,0.0003,1.0,1.0,0.0,0.0067,0.0,0.0,0.0,0.0002,1.0,1.0,0.0,0.0183,0.0,0.0,0.0,0.0001,1.0,1.0,0.0,0.0374,0.0,0.0,0.0,0.0,1.0,1.0,0.0,0.0916,0.0,0.0,0.0,0.0
COMTE,LSTMFCN,29,1,0,57.8713,0.0104,0.0,3.157,48.7178,6.0431,0.9752,1.0,0.9992,0.0,0.0058,1.0,0.9752,1.0,0.9995,1.0,0.9994,0.0,0.0036,1.0,0.9184,1.0,0.9959,1.0,1.0,0.0,0.0029,0.0,0.3515,1.0,0.9617,1.0,1.0,0.0,0.0023,0.0,0.0068,0.0,0.2966,1.0,1.0,0.0,0.0024,0.0,0.0003,0.0,0.0115,1.0,1.0,0.0,0.0018,0.0,0.0,0.0,0.0011,1.0,1.0,0.0,0.0009,0.0,0.0,0.0,0.0002,1.0,1.0,0.0,0.0004,0.0,0.0,0.0,0.0001,1.0,1.0,0.0,0.0003,0.0,0.0,0.0,0.0001,1.0,1.0,0.0,0.0003,0.0,0.0,0.0,0.0001,1.0,1.0,0.0,0.0005,0.0,0.0,0.0,0.0001
COMTE,LSTMFCN,83,1,0,55.9681,0.0,0.0,4.0354,42.9986,5.8813,0.7961,1.0,0.9998,0.0,0.0095,1.0,0.7961,1.0,0.9998,1.0,0.9999,0.0,0.0037,1.0,0.9174,1.0,0.999,1.0,1.0,0.0,0.002,0.0,0.3498,1.0,0.9957,1.0,1.0,0.0,0.0016,0.0,0.0172,1.0,0.9803,1.0,1.0,0.0,0.0014,0.0,0.0026,1.0,0.881,1.0,1.0,0.0,0.0011,0.0,0.0,0.0,0.4384,1.0,1.0,0.0,0.0009,0.0,0.0,0.0,0.1117,1.0,1.0,0.0,0.0008,0.0,0.0,0.0,0.0293,1.0,1.0,0.0,0.0013,0.0,0.0,0.0,0.0079,1.0,1.0,0.0,0.0037,0.0,0.0,0.0,0.0022,1.0,1.0,0.0,0.0089,0.0,0.0,0.0,0.0007
COMTE,LSTMFCN,82,1,0,51.9028,0.0104,0.0,3.7032,34.1407,5.3362,0.7953,1.0,0.8034,0.0,0.0014,1.0,0.7953,1.0,0.9979,1.0,0.8118,0.0,0.0004,1.0,0.6966,1.0,0.9905,1.0,0.9811,0.0,0.0001,0.0,0.1181,1.0,0.8175,1.0,0.9934,0.0,0.0001,0.0,0.0047,0.0,0.0633,1.0,0.9999,0.0,0.0002,0.0,0.0,0.0,0.0038,1.0,1.0,0.0,0.0002,0.0,0.0,0.0,0.0007,1.0,1.0,0.0,0.0005,0.0,0.0,0.0,0.0003,1.0,1.0,0.0,0.0005,0.0,0.0,0.0,0.0002,1.0,1.0,0.0,0.0005,0.0,0.0,0.0,0.0001,1.0,1.0,0.0,0.0005,0.0,0.0,0.0,0.0,1.0,1.0,0.0,0.0006,0.0,0.0,0.0,0.0
COMTE,LSTMFCN,43,1,0,53.6833,0.0,0.0,2.2565,35.1426,4.7377,0.9774,1.0,0.999,0.0,0.02,1.0,0.9774,1.0,0.9997,1.0,0.999,0.0,0.0027,1.0,0.9789,1.0,0.9965,1.0,0.9999,0.0,0.0014,0.0,0.2368,1.0,0.9717,1.0,1.0,0.0,0.001,0.0,0.0,0.0,0.4882,1.0,1.0,0.0,0.0006,0.0,0.0,0.0,0.0219,1.0,1.0,0.0,0.0003,0.0,0.0,0.0,0.0019,1.0,1.0,0.0,0.0002,0.0,0.0,0.0,0.0004,1.0,1.0,0.0,0.0002,0.0,0.0,0.0,0.0001,1.0,1.0,0.0,0.0003,0.0,0.0,0.0,0.0,1.0,1.0,0.0,0.0006,0.0,0.0,0.0,0.0,1.0,1.0,0.0,0.002,0.0,0.0,0.0,0.0
COMTE,LSTMFCN,28,0,1,58.0305,0.0,0.0,3.398,46.387,6.4113,0.9989,1.0,0.9936,1.0,0.9998,1.0,0.9989,0.0,0.0088,1.0,0.9939,1.0,0.9997,1.0,0.9993,0.0,0.0032,1.0,0.9659,1.0,0.9996,1.0,0.9988,0.0,0.0012,1.0,0.7599,1.0,0.9994,1.0,1.0,0.0,0.0009,0.0,0.066,1.0,0.9992,1.0,1.0,0.0,0.0013,0.0,0.0,1.0,0.9987,1.0,1.0,0.0,0.0021,0.0,0.0,1.0,0.9981,1.0,1.0,0.0,0.0033,0.0,0.0,1.0,0.996,1.0,1.0,0.0,0.0049,0.0,0.0,1.0,0.99,1.0,1.0,0.0,0.0071,0.0,0.0,1.0,0.9604,1.0,1.0,0.0,0.0088,0.0,0.0,1.0,0.8273,1.0,1.0,0.0,0.0145
COMTE,LSTMFCN,22,1,0,53.2154,0.0,0.0,2.8775,42.9315,5.4069,0.9752,1.0,0.9669,0.0,0.0032,1.0,0.9752,1.0,0.9995,1.0,0.987,0.0,0.0017,1.0,0.9674,1.0,0.9959,1.0,0.9992,0.0,0.0017,0.0,0.1407,1.0,0.9617,1.0,1.0,0.0,0.0042,0.0,0.0123,0.0,0.2966,1.0,1.0,0.0,0.0217,0.0,0.0,0.0,0.0115,1.0,1.0,0.0,0.1358,0.0,0.0,0.0,0.0011,1.0,1.0,0.0,0.4177,0.0,0.0,0.0,0.0002,1.0,1.0,1.0,0.7428,0.0,0.0,0.0,0.0001,1.0,1.0,1.0,0.88,0.0,0.0,0.0,0.0001,1.0,1.0,1.0,0.9431,0.0,0.0,0.0,0.0001,1.0,1.0,1.0,0.9853,0.0,0.0,0.0,0.0001
COMTE,LSTMFCN,23,1,0,54.4549,0.0,0.0,2.9273,42.4453,5.3178,0.9752,1.0,0.9997,0.0,0.012,1.0,0.9752,1.0,0.9995,1.0,0.9999,0.0,0.0055,1.0,0.9276,1.0,0.9959,1.0,1.0,0.0,0.0033,1.0,0.8676,1.0,0.9617,1.0,1.0,0.0,0.0029,0.0,0.0065,0.0,0.2966,1.0,1.0,0.0,0.0048,0.0,0.0,0.0,0.0115,1.0,1.0,0.0,0.0239,0.0,0.0,0.0,0.0011,1.0,1.0,0.0,0.0789,0.0,0.0,0.0,0.0002,1.0,1.0,0.0,0.1837,0.0,0.0,0.0,0.0001,1.0,1.0,0.0,0.347,0.0,0.0,0.0,0.0001,1.0,1.0,1.0,0.5524,0.0,0.0,0.0,0.0001,1.0,1.0,1.0,0.869,0.0,0.0,0.0,0.0001
COMTE,LSTMFCN,90,1,0,54.8555,0.0,0.0,2.1879,26.811,3.4584,0.9774,1.0,0.9646,0.0,0.024,1.0,0.9774,1.0,0.9997,1.0,0.9758,0.0,0.0023,1.0,0.943,1.0,0.9965,1.0,0.972,0.0,0.0004,0.0,0.0946,1.0,0.9717,1.0,1.0,0.0,0.0002,0.0,0.0001,0.0,0.4882,1.0,1.0,0.0,0.0002,0.0,0.0,0.0,0.0219,1.0,1.0,0.0,0.0003,0.0,0.0,0.0,0.0019,1.0,1.0,0.0,0.0004,0.0,0.0,0.0,0.0004,1.0,1.0,0.0,0.0006,0.0,0.0,0.0,0.0001,1.0,1.0,0.0,0.0011,0.0,0.0,0.0,0.0,1.0,1.0,0.0,0.0024,0.0,0.0,0.0,0.0,1.0,1.0,0.0,0.0045,0.0,0.0,0.0,0.0
COMTE,LSTMFCN,86,0,1,53.3939,0.0,0.0,2.7506,28.0746,4.0389,0.9945,1.0,0.8075,1.0,0.9975,1.0,0.9945,0.0,0.0046,1.0,0.8746,1.0,0.9954,1.0,0.9979,0.0,0.002,1.0,0.5406,1.0,0.991,1.0,0.9995,0.0,0.0013,0.0,0.0146,1.0,0.956,1.0,0.9983,0.0,0.001,0.0,0.0009,1.0,0.7327,1.0,1.0,0.0,0.0014,0.0,0.0,0.0,0.4263,1.0,1.0,0.0,0.0019,0.0,0.0,0.0,0.2311,1.0,1.0,0.0,0.0021,0.0,0.0,0.0,0.0874,1.0,1.0,0.0,0.0026,0.0,0.0,0.0,0.0188,1.0,1.0,0.0,0.005,0.0,0.0,0.0,0.0027,1.0,1.0,0.0,0.0219,0.0,0.0,0.0,0.0004,1.0,1.0,0.0,0.1368
COMTE,LSTMFCN,20,0,1,54.1664,0.0,0.0,4.9127,88.5182,11.8683,0.9975,1.0,0.9986,1.0,0.9993,1.0,0.9975,0.0,0.0053,1.0,0.9978,1.0,0.9741,1.0,0.9988,0.0,0.0021,1.0,0.9963,0.0,0.3885,1.0,0.9999,0.0,0.0012,0.0,0.0016,0.0,0.0142,1.0,0.9929,0.0,0.0008,0.0,0.0,0.0,0.0006,1.0,1.0,0.0,0.0005,0.0,0.0,0.0,0.0001,1.0,1.0,0.0,0.0005,0.0,0.0,0.0,0.0,1.0,1.0,0.0,0.0007,0.0,0.0,0.0,0.0,1.0,1.0,0.0,0.0009,0.0,0.0,0.0,0.0,1.0,1.0,0.0,0.0013,0.0,0.0,0.0,0.0,1.0,1.0,0.0,0.0022,0.0,0.0,0.0,0.0,1.0,1.0,0.0,0.0048
COMTE,LSTMFCN,32,0,1,55.4225,0.0,0.0,2.6661,31.9477,4.4898,0.9826,1.0,0.6889,1.0,0.9999,1.0,0.9826,0.0,0.0005,1.0,0.6524,1.0,0.9997,1.0,0.9823,0.0,0.0001,1.0,0.5975,1.0,0.9985,1.0,0.9988,0.0,0.0001,0.0,0.0284,1.0,0.965,1.0,0.9991,0.0,0.0001,0.0,0.1381,0.0,0.3575,1.0,0.9994,0.0,0.0,0.0,0.0,0.0,0.0475,1.0,1.0,0.0,0.0001,0.0,0.0,0.0,0.013,1.0,1.0,0.0,0.0001,0.0,0.0,0.0,0.0046,1.0,1.0,0.0,0.0001,0.0,0.0,0.0,0.002,1.0,1.0,0.0,0.0002,0.0,0.0,0.0,0.0009,1.0,1.0,0.0,0.0006,0.0,0.0,0.0,0.0004,1.0,1.0,0.0,0.0085
COMTE,LSTMFCN,6,1,0,56.9385,0.0208,0.0,1.5311,30.1232,4.4298,0.9872,1.0,0.6882,0.0,0.0001,1.0,0.9872,1.0,1.0,1.0,0.7403,0.0,0.0001,1.0,0.9911,1.0,0.9999,1.0,0.843,0.0,0.0001,1.0,0.872,1.0,0.9998,1.0,0.9132,0.0,0.0001,0.0,0.0703,1.0,0.9982,1.0,0.9998,0.0,0.0001,0.0,0.0794,1.0,0.9678,1.0,1.0,0.0,0.0002,0.0,0.0,1.0,0.535,1.0,0.9998,0.0,0.0003,0.0,0.0006,0.0,0.0774,1.0,1.0,0.0,0.0005,0.0,0.0,0.0,0.0164,1.0,1.0,0.0,0.0007,0.0,0.0,0.0,0.0051,1.0,1.0,0.0,0.002,0.0,0.0,0.0,0.0023,1.0,1.0,0.0,0.0068,0.0,0.0,0.0,0.0014
COMTE,LSTMFCN,3,1,0,57.6852,0.0,0.0,2.6398,40.845,5.4425,0.9774,1.0,0.9954,0.0,0.0218,1.0,0.9774,1.0,0.9997,1.0,0.9951,0.0,0.0094,1.0,0.7162,1.0,0.9965,1.0,0.9998,0.0,0.0074,1.0,0.5728,1.0,0.9717,1.0,1.0,0.0,0.0882,0.0,0.0036,0.0,0.4882,1.0,1.0,1.0,0.9055,0.0,0.0,0.0,0.0219,1.0,1.0,1.0,0.9982,0.0,0.0,0.0,0.0019,1.0,1.0,1.0,0.9999,0.0,0.0,0.0,0.0004,1.0,1.0,1.0,1.0,0.0,0.0,0.0,0.0001,1.0,1.0,1.0,1.0,0.0,0.0,0.0,0.0,1.0,1.0,1.0,1.0,0.0,0.0,0.0,0.0,1.0,1.0,1.0,1.0,0.0,0.0,0.0,0.0
COMTE,LSTMFCN,12,0,1,53.7151,0.0104,0.2,4.7812,59.9143,7.6583,0.926,1.0,0.8863,1.0,0.9943,1.0,0.926,0.0,0.0011,1.0,0.8844,1.0,0.9572,1.0,0.9275,0.0,0.0007,0.0,0.2498,1.0,0.7596,1.0,0.9115,0.0,0.001,0.0,0.2538,0.0,0.408,1.0,0.9803,0.0,0.0039,0.0,0.0,0.0,0.116,1.0,0.9989,0.0,0.0525,0.0,0.0,0.0,0.0207,1.0,1.0,0.0,0.4946,0.0,0.0,0.0,0.0033,1.0,1.0,1.0,0.8988,0.0,0.0,0.0,0.0007,1.0,1.0,1.0,0.9445,0.0,0.0,0.0,0.0002,1.0,1.0,1.0,0.9645,0.0,0.0,0.0,0.0,1.0,1.0,1.0,0.9845,0.0,0.0,0.0,0.0,1.0,1.0,1.0,0.9962
COMTE,LSTMFCN,51,0,1,52.2667,0.0,0.0,4.2801,80.2547,11.106,0.9677,1.0,0.9999,1.0,1.0,1.0,0.9677,0.0,0.0016,1.0,0.9999,1.0,0.9998,1.0,0.9888,0.0,0.0009,1.0,0.9906,1.0,0.9969,1.0,0.9989,0.0,0.0008,0.0,0.0003,1.0,0.9236,1.0,1.0,0.0,0.0008,0.0,0.0,0.0,0.0609,1.0,1.0,0.0,0.0009,0.0,0.0,0.0,0.0004,1.0,1.0,0.0,0.0017,0.0,0.0,0.0,0.0,1.0,1.0,0.0,0.0043,0.0,0.0,0.0,0.0,1.0,1.0,0.0,0.0071,0.0,0.0,0.0,0.0,1.0,1.0,0.0,0.0096,0.0,0.0,0.0,0.0,1.0,1.0,0.0,0.0098,0.0,0.0,0.0,0.0,1.0,1.0,0.0,0.0096
COMTE,LSTMFCN,84,0,1,52.7266,0.0,0.0,2.4225,36.7528,5.0176,0.9826,1.0,0.9981,1.0,1.0,1.0,0.9826,0.0,0.0005,1.0,0.9991,1.0,1.0,1.0,0.9841,0.0,0.0001,1.0,0.9949,1.0,0.9999,1.0,0.9957,0.0,0.0001,1.0,0.9374,1.0,0.9992,1.0,0.9981,0.0,0.0001,0.0,0.0544,1.0,0.965,1.0,1.0,0.0,0.0,0.0,0.0036,1.0,0.5107,1.0,1.0,0.0,0.0001,0.0,0.0,0.0,0.1101,1.0,1.0,0.0,0.0001,0.0,0.0,0.0,0.0272,1.0,1.0,0.0,0.0001,0.0,0.0,0.0,0.009,1.0,1.0,0.0,0.0002,0.0,0.0,0.0,0.0048,1.0,1.0,0.0,0.0006,0.0,0.0,0.0,0.0035,1.0,1.0,0.0,0.0085
COMTE,LSTMFCN,73,1,0,55.163,0.0,0.0,1.5869,35.3819,4.6867,0.9774,1.0,0.9698,0.0,0.0013,1.0,0.9774,1.0,0.9997,1.0,0.9464,0.0,0.0002,1.0,0.7984,1.0,0.9965,1.0,0.9765,0.0,0.0,0.0,0.21,1.0,0.9717,1.0,0.9997,0.0,0.0,0.0,0.0,0.0,0.4882,1.0,1.0,0.0,0.0,0.0,0.0,0.0,0.0219,1.0,1.0,0.0,0.0001,0.0,0.0,0.0,0.0019,1.0,1.0,0.0,0.0001,0.0,0.0,0.0,0.0004,1.0,1.0,0.0,0.0003,0.0,0.0,0.0,0.0001,1.0,1.0,0.0,0.0005,0.0,0.0,0.0,0.0,1.0,1.0,0.0,0.0012,0.0,0.0,0.0,0.0,1.0,1.0,0.0,0.0037,0.0,0.0,0.0,0.0
COMTE,LSTMFCN,64,0,1,52.3215,0.0,0.0,3.3787,51.4229,6.9218,0.9826,1.0,0.5985,1.0,1.0,1.0,0.9826,0.0,0.0005,1.0,0.6978,1.0,0.9999,1.0,0.9828,0.0,0.0001,1.0,0.6028,1.0,0.9987,1.0,0.9958,0.0,0.0001,0.0,0.255,1.0,0.9875,1.0,0.9999,0.0,0.0001,0.0,0.0003,1.0,0.8937,1.0,1.0,0.0,0.0,0.0,0.0,0.0,0.4909,1.0,1.0,0.0,0.0001,0.0,0.0,0.0,0.1438,1.0,1.0,0.0,0.0001,0.0,0.0,0.0,0.0585,1.0,1.0,0.0,0.0001,0.0,0.0,0.0,0.0292,1.0,1.0,0.0,0.0002,0.0,0.0,0.0,0.0109,1.0,1.0,0.0,0.0006,0.0,0.0,0.0,0.0052,1.0,1.0,0.0,0.0085
COMTE,LSTMFCN,68,1,0,52.693,0.0208,0.0,3.7802,53.6076,6.8503,0.9774,1.0,0.9999,0.0,0.0099,1.0,0.9774,1.0,0.9997,1.0,0.9999,0.0,0.0027,1.0,0.9276,1.0,0.9965,1.0,1.0,0.0,0.0014,1.0,0.7932,1.0,0.9717,1.0,1.0,0.0,0.0015,0.0,0.0188,0.0,0.4882,1.0,1.0,0.0,0.0025,0.0,0.0,0.0,0.0219,1.0,1.0,0.0,0.0067,0.0,0.0002,0.0,0.0019,1.0,1.0,0.0,0.0434,0.0,0.0,0.0,0.0004,1.0,1.0,0.0,0.2014,0.0,0.0,0.0,0.0001,1.0,1.0,1.0,0.5735,0.0,0.0,0.0,0.0,1.0,1.0,1.0,0.9048,0.0,0.0,0.0,0.0,1.0,1.0,1.0,0.9864,0.0,0.0,0.0,0.0
COMTE,LSTMFCN,75,0,1,54.8097,0.0208,0.0,2.0293,29.5144,4.035,0.9947,1.0,0.853,1.0,0.9985,1.0,0.9947,0.0,0.008,1.0,0.7382,1.0,0.9856,1.0,0.9959,0.0,0.0027,1.0,0.9141,1.0,0.9219,1.0,0.9992,0.0,0.0016,0.0,0.0088,0.0,0.4207,1.0,1.0,0.0,0.0011,0.0,0.0,0.0,0.0257,1.0,1.0,0.0,0.0013,0.0,0.0,0.0,0.002,1.0,1.0,0.0,0.0018,0.0,0.0,0.0,0.0004,1.0,1.0,0.0,0.0034,0.0,0.0,0.0,0.0002,1.0,1.0,0.0,0.0068,0.0,0.0,0.0,0.0001,1.0,1.0,0.0,0.0141,0.0,0.0,0.0,0.0001,1.0,1.0,0.0,0.0343,0.0,0.0,0.0,0.0001,1.0,1.0,0.0,0.0805
COMTE,LSTMFCN,74,1,0,52.4847,0.0,0.0,2.7223,47.7223,5.969,0.9752,1.0,0.9973,0.0,0.007,1.0,0.9752,1.0,0.9995,1.0,0.9978,0.0,0.0021,1.0,0.8458,1.0,0.9959,1.0,0.9993,0.0,0.0015,1.0,0.7016,1.0,0.9617,1.0,0.9999,0.0,0.0019,0.0,0.0,0.0,0.2966,1.0,1.0,0.0,0.003,0.0,0.0,0.0,0.0115,1.0,1.0,0.0,0.0026,0.0,0.0,0.0,0.0011,1.0,1.0,0.0,0.0013,0.0,0.0,0.0,0.0002,1.0,1.0,0.0,0.0007,0.0,0.0,0.0,0.0001,1.0,1.0,0.0,0.0007,0.0,0.0,0.0,0.0001,1.0,1.0,0.0,0.0008,0.0,0.0,0.0,0.0001,1.0,1.0,0.0,0.0013,0.0,0.0,0.0,0.0001
COMTE,LSTMFCN,57,0,1,52.0313,0.0,0.0,1.6575,26.3621,3.5152,0.8298,1.0,0.9694,1.0,1.0,1.0,0.8298,0.0,0.0002,1.0,0.9255,1.0,1.0,1.0,0.731,0.0,0.0001,1.0,0.9742,1.0,0.9998,1.0,0.7459,0.0,0.0001,0.0,0.3591,1.0,0.9972,1.0,0.9886,0.0,0.0001,0.0,0.0148,1.0,0.9458,1.0,0.9996,0.0,0.0002,0.0,0.0,1.0,0.5657,1.0,0.9995,0.0,0.0004,0.0,0.0,0.0,0.137,1.0,1.0,0.0,0.0007,0.0,0.0,0.0,0.0324,1.0,1.0,0.0,0.0014,0.0,0.0,0.0,0.0129,1.0,1.0,0.0,0.0066,0.0,0.0,0.0,0.0064,1.0,1.0,0.0,0.0873,0.0,0.0,0.0,0.0037,1.0,1.0,1.0,0.7172
COMTE,LSTMFCN,42,0,1,56.6371,0.0104,0.0,2.9899,37.0649,5.515,0.9906,1.0,0.7312,1.0,0.992,1.0,0.9906,0.0,0.0066,1.0,0.721,1.0,0.9742,1.0,0.9978,0.0,0.0007,0.0,0.2438,1.0,0.7092,1.0,1.0,0.0,0.0001,0.0,0.0003,0.0,0.0638,1.0,1.0,0.0,0.0001,0.0,0.0,0.0,0.0042,1.0,1.0,0.0,0.0001,0.0,0.0,0.0,0.0008,1.0,1.0,0.0,0.0001,0.0,0.0,0.0,0.0003,1.0,1.0,0.0,0.0002,0.0,0.0,0.0,0.0002,1.0,1.0,0.0,0.0004,0.0,0.0,0.0,0.0001,1.0,1.0,0.0,0.0013,0.0,0.0,0.0,0.0001,1.0,1.0,0.0,0.0037,0.0,0.0,0.0,0.0001,1.0,1.0,0.0,0.0084
COMTE,LSTMFCN,76,1,0,83.2062,0.0104,0.0,2.34,34.6443,4.6442,0.9774,1.0,0.9864,0.0,0.0147,1.0,0.9774,1.0,0.9997,1.0,0.9862,0.0,0.0027,1.0,0.6935,1.0,0.9965,1.0,0.9994,0.0,0.0005,0.0,0.1253,1.0,0.9717,1.0,1.0,0.0,0.0002,0.0,0.0,0.0,0.4882,1.0,1.0,0.0,0.0001,0.0,0.0,0.0,0.0219,1.0,1.0,0.0,0.0,0.0,0.0,0.0,0.0019,1.0,1.0,0.0,0.0,0.0,0.0,0.0,0.0004,1.0,1.0,0.0,0.0,0.0,0.0,0.0,0.0001,1.0,1.0,0.0,0.0,0.0,0.0,0.0,0.0,1.0,1.0,0.0,0.0,0.0,0.0,0.0,0.0,1.0,1.0,0.0,0.0001,0.0,0.0,0.0,0.0
COMTE,LSTMFCN,99,1,0,56.1342,0.0,0.0,2.4726,42.1274,5.1405,0.9041,1.0,0.9708,0.0,0.0004,1.0,0.9041,1.0,0.9999,1.0,0.9782,0.0,0.0001,1.0,0.8824,1.0,0.9999,1.0,0.9761,0.0,0.0,1.0,0.8132,1.0,0.9998,1.0,0.9986,0.0,0.0,1.0,0.5934,1.0,0.9992,1.0,1.0,0.0,0.0,0.0,0.0162,1.0,0.9845,1.0,1.0,0.0,0.0,0.0,0.0,1.0,0.7356,1.0,1.0,0.0,0.0,0.0,0.0,0.0,0.2143,1.0,1.0,0.0,0.0001,0.0,0.0,0.0,0.0441,1.0,1.0,0.0,0.0002,0.0,0.0,0.0,0.0099,1.0,1.0,0.0,0.0006,0.0,0.0,0.0,0.003,1.0,1.0,0.0,0.0027,0.0,0.0,0.0,0.001
COMTE,LSTMFCN,17,1,0,53.2805,0.0,0.0,2.3819,40.493,5.3361,0.7961,1.0,0.9456,0.0,0.0026,1.0,0.7961,1.0,0.9998,1.0,0.9383,0.0,0.0017,1.0,0.61,1.0,0.999,1.0,0.9726,0.0,0.0033,1.0,0.711,1.0,0.9957,1.0,0.9993,0.0,0.0319,0.0,0.0161,1.0,0.9803,1.0,1.0,1.0,0.5034,0.0,0.0086,1.0,0.881,1.0,1.0,1.0,0.9476,0.0,0.0,0.0,0.4384,1.0,1.0,1.0,0.9846,0.0,0.0,0.0,0.1117,1.0,1.0,1.0,0.9909,0.0,0.0,0.0,0.0293,1.0,1.0,1.0,0.9941,0.0,0.0,0.0,0.0079,1.0,1.0,1.0,0.9939,0.0,0.0,0.0,0.0022,1.0,1.0,1.0,0.9954,0.0,0.0,0.0,0.0007
COMTE,LSTMFCN,93,1,0,53.0928,0.0,0.0,4.5515,51.4325,6.5983,0.9752,1.0,0.9999,0.0,0.0038,1.0,0.9752,1.0,0.9995,1.0,1.0,0.0,0.0016,1.0,0.9347,1.0,0.9959,1.0,1.0,0.0,0.0011,1.0,0.5221,1.0,0.9617,1.0,1.0,0.0,0.0012,0.0,0.1074,0.0,0.2966,1.0,1.0,0.0,0.0018,0.0,0.0,0.0,0.0115,1.0,1.0,0.0,0.0027,0.0,0.0,0.0,0.0011,1.0,1.0,0.0,0.0031,0.0,0.0,0.0,0.0002,1.0,1.0,0.0,0.0035,0.0,0.0,0.0,0.0001,1.0,1.0,0.0,0.0056,0.0,0.0,0.0,0.0001,1.0,1.0,0.0,0.0164,0.0,0.0,0.0,0.0001,1.0,1.0,0.0,0.0666,0.0,0.0,0.0,0.0001
COMTE,LSTMFCN,63,0,1,53.6286,0.0,0.0,2.3985,41.6567,5.6575,0.7636,1.0,0.7267,1.0,1.0,1.0,0.7636,0.0,0.0,1.0,0.6955,1.0,0.9998,1.0,0.8065,0.0,0.0,1.0,0.5492,1.0,0.9994,1.0,0.8204,0.0,0.0,0.0,0.0005,1.0,0.9978,1.0,0.9358,0.0,0.0,0.0,0.0001,1.0,0.9843,1.0,0.9819,0.0,0.0,0.0,0.0,1.0,0.8727,1.0,1.0,0.0,0.0,0.0,0.0,1.0,0.5249,1.0,1.0,0.0,0.0,0.0,0.0,0.0,0.1481,1.0,1.0,0.0,0.0001,0.0,0.0,0.0,0.0349,1.0,1.0,0.0,0.0002,0.0,0.0,0.0,0.0102,1.0,1.0,0.0,0.001,0.0,0.0,0.0,0.0023,1.0,1.0,0.0,0.0294
COMTE,LSTMFCN,0,1,0,53.8946,0.0,0.0,2.9513,42.7484,5.4671,0.9752,1.0,0.9998,0.0,0.0368,1.0,0.9752,1.0,0.9995,1.0,1.0,0.0,0.0134,1.0,0.9729,1.0,0.9959,1.0,1.0,0.0,0.0092,0.0,0.2593,1.0,0.9617,1.0,1.0,0.0,0.006,0.0,0.052,0.0,0.2966,1.0,1.0,0.0,0.0039,0.0,0.0,0.0,0.0115,1.0,1.0,0.0,0.003,0.0,0.0,0.0,0.0011,1.0,1.0,0.0,0.0029,0.0,0.0,0.0,0.0002,1.0,1.0,0.0,0.0035,0.0,0.0,0.0,0.0001,1.0,1.0,0.0,0.0044,0.0,0.0,0.0,0.0001,1.0,1.0,0.0,0.0061,0.0,0.0,0.0,0.0001,1.0,1.0,0.0,0.0113,0.0,0.0,0.0,0.0001
COMTE,LSTMFCN,18,0,1,51.2682,0.0,0.0,4.7086,37.4879,5.7625,0.9975,1.0,0.5708,1.0,0.9924,1.0,0.9975,0.0,0.0053,1.0,0.568,1.0,0.9139,1.0,0.9979,0.0,0.0021,0.0,0.4762,0.0,0.2286,1.0,0.9998,0.0,0.0012,0.0,0.0243,0.0,0.0109,1.0,1.0,0.0,0.0008,0.0,0.0,0.0,0.0016,1.0,1.0,0.0,0.0005,0.0,0.0,0.0,0.0006,1.0,1.0,0.0,0.0005,0.0,0.0,0.0,0.0003,1.0,1.0,0.0,0.0007,0.0,0.0,0.0,0.0002,1.0,1.0,0.0,0.0009,0.0,0.0,0.0,0.0002,1.0,1.0,0.0,0.0013,0.0,0.0,0.0,0.0002,1.0,1.0,0.0,0.0022,0.0,0.0,0.0,0.0002,1.0,1.0,0.0,0.0048
COMTE,LSTMFCN,44,1,0,52.2342,0.0,0.0,3.5919,40.6332,5.6779,0.7961,1.0,0.985,0.0,0.0074,1.0,0.7961,1.0,0.9998,1.0,0.987,0.0,0.0044,1.0,0.8711,1.0,0.999,1.0,0.9983,0.0,0.0033,1.0,0.7044,1.0,0.9957,1.0,1.0,0.0,0.0029,0.0,0.4829,1.0,0.9803,1.0,1.0,0.0,0.0031,0.0,0.0,1.0,0.881,1.0,1.0,0.0,0.0043,0.0,0.0,0.0,0.4384,1.0,1.0,0.0,0.0038,0.0,0.0,0.0,0.1117,1.0,1.0,0.0,0.003,0.0,0.0,0.0,0.0293,1.0,1.0,0.0,0.0039,0.0,0.0,0.0,0.0079,1.0,1.0,0.0,0.0112,0.0,0.0,0.0,0.0022,1.0,1.0,0.0,0.0631,0.0,0.0,0.0,0.0007
COMTE,LSTMFCN,38,0,1,59.6504,0.0,0.0,4.9867,78.6052,10.8382,0.9975,1.0,0.9943,1.0,0.9958,1.0,0.9975,0.0,0.0053,1.0,0.9698,1.0,0.7539,1.0,0.9996,0.0,0.0021,1.0,0.5018,0.0,0.0989,1.0,0.999,0.0,0.0012,0.0,0.0032,0.0,0.0204,1.0,1.0,0.0,0.0008,0.0,0.0,0.0,0.0049,1.0,1.0,0.0,0.0005,0.0,0.0,0.0,0.001,1.0,1.0,0.0,0.0005,0.0,0.0,0.0,0.0002,1.0,1.0,0.0,0.0007,0.0,0.0,0.0,0.0001,1.0,1.0,0.0,0.0009,0.0,0.0,0.0,0.0001,1.0,1.0,0.0,0.0013,0.0,0.0,0.0,0.0001,1.0,1.0,0.0,0.0022,0.0,0.0,0.0,0.0001,1.0,1.0,0.0,0.0048
COMTE,LSTMFCN,45,1,0,58.4833,0.0104,0.1,2.4812,35.4595,4.6583,0.9752,1.0,0.9985,0.0,0.0051,1.0,0.9752,1.0,0.9995,1.0,0.9997,0.0,0.0021,1.0,0.932,1.0,0.9959,1.0,0.9999,0.0,0.0014,1.0,0.781,1.0,0.9617,1.0,1.0,0.0,0.0015,0.0,0.0023,0.0,0.2966,1.0,1.0,0.0,0.0024,0.0,0.0,0.0,0.0115,1.0,1.0,0.0,0.004,0.0,0.0,0.0,0.0011,1.0,1.0,0.0,0.0039,0.0,0.0,0.0,0.0002,1.0,1.0,0.0,0.0031,0.0,0.0,0.0,0.0001,1.0,1.0,0.0,0.0038,0.0,0.0,0.0,0.0001,1.0,1.0,0.0,0.0091,0.0,0.0,0.0,0.0001,1.0,1.0,0.0,0.0379,0.0,0.0,0.0,0.0001
COMTE,LSTMFCN,39,0,1,55.2491,0.0,0.0,2.0304,26.0153,3.6018,0.8298,1.0,0.8369,1.0,1.0,1.0,0.8298,0.0,0.0002,1.0,0.8638,1.0,0.9999,1.0,0.8337,0.0,0.0001,0.0,0.4293,1.0,0.9994,1.0,0.9235,0.0,0.0001,0.0,0.0613,1.0,0.9932,1.0,0.9892,0.0,0.0001,0.0,0.0118,1.0,0.9249,1.0,1.0,0.0,0.0002,0.0,0.0,1.0,0.5433,1.0,1.0,0.0,0.0004,0.0,0.0,0.0,0.1808,1.0,1.0,0.0,0.0007,0.0,0.0,0.0,0.0639,1.0,1.0,0.0,0.0014,0.0,0.0,0.0,0.0256,1.0,1.0,0.0,0.0066,0.0,0.0,0.0,0.0114,1.0,1.0,0.0,0.0873,0.0,0.0,0.0,0.0063,1.0,1.0,1.0,0.7172
COMTE,LSTMFCN,70,1,0,54.2982,0.0,0.0,3.6296,47.8707,6.0298,0.7961,1.0,0.999,0.0,0.0079,1.0,0.7961,1.0,0.9998,1.0,0.9998,0.0,0.0015,1.0,0.894,1.0,0.999,1.0,0.9999,0.0,0.0005,1.0,0.5216,1.0,0.9957,1.0,1.0,0.0,0.0005,0.0,0.0194,1.0,0.9803,1.0,1.0,0.0,0.0011,0.0,0.0077,1.0,0.881,1.0,1.0,0.0,0.0013,0.0,0.0,0.0,0.4384,1.0,1.0,0.0,0.0028,0.0,0.0,0.0,0.1117,1.0,1.0,0.0,0.0116,0.0,0.0,0.0,0.0293,1.0,1.0,0.0,0.0413,0.0,0.0,0.0,0.0079,1.0,1.0,0.0,0.2063,0.0,0.0,0.0,0.0022,1.0,1.0,1.0,0.7217,0.0,0.0,0.0,0.0007
COMTE,LSTMFCN,94,1,0,51.992,0.0104,0.0,2.6186,23.3421,3.4925,0.9041,1.0,0.6972,0.0,0.0001,1.0,0.9041,1.0,0.9999,1.0,0.7047,0.0,0.0001,1.0,0.9301,1.0,0.9999,1.0,0.7536,0.0,0.0001,1.0,0.7451,1.0,0.9998,1.0,0.9841,0.0,0.0001,0.0,0.1446,1.0,0.9992,1.0,1.0,0.0,0.0001,0.0,0.0007,1.0,0.9845,1.0,1.0,0.0,0.0001,0.0,0.0004,1.0,0.7356,1.0,1.0,0.0,0.0001,0.0,0.0,0.0,0.2143,1.0,1.0,0.0,0.0002,0.0,0.0,0.0,0.0441,1.0,1.0,0.0,0.0007,0.0,0.0,0.0,0.0099,1.0,1.0,0.0,0.006,0.0,0.0,0.0,0.003,1.0,1.0,0.0,0.0858,0.0,0.0,0.0,0.001
COMTE,LSTMFCN,30,1,0,52.426,0.0,0.0,2.1827,43.9345,5.6448,0.9752,1.0,0.9962,0.0,0.0062,1.0,0.9752,1.0,0.9995,1.0,0.9969,0.0,0.0028,1.0,0.9595,1.0,0.9959,1.0,0.9997,0.0,0.0022,0.0,0.1551,1.0,0.9617,1.0,1.0,0.0,0.0033,0.0,0.001,0.0,0.2966,1.0,1.0,0.0,0.0076,0.0,0.0001,0.0,0.0115,1.0,1.0,0.0,0.0141,0.0,0.0,0.0,0.0011,1.0,1.0,0.0,0.0168,0.0,0.0,0.0,0.0002,1.0,1.0,0.0,0.0289,0.0,0.0,0.0,0.0001,1.0,1.0,0.0,0.0793,0.0,0.0,0.0,0.0001,1.0,1.0,0.0,0.193,0.0,0.0,0.0,0.0001,1.0,1.0,0.0,0.4236,0.0,0.0,0.0,0.0001
COMTE,LSTMFCN,71,1,0,54.3617,0.0,0.0,2.7197,41.7088,5.2367,0.9752,1.0,0.9992,0.0,0.0052,1.0,0.9752,1.0,0.9995,1.0,0.9992,0.0,0.0041,1.0,0.9601,1.0,0.9959,1.0,0.9999,0.0,0.0039,0.0,0.1517,1.0,0.9617,1.0,1.0,0.0,0.0035,0.0,0.0006,0.0,0.2966,1.0,1.0,0.0,0.0047,0.0,0.0001,0.0,0.0115,1.0,1.0,0.0,0.0133,0.0,0.0,0.0,0.0011,1.0,1.0,0.0,0.0344,0.0,0.0,0.0,0.0002,1.0,1.0,0.0,0.1325,0.0,0.0,0.0,0.0001,1.0,1.0,0.0,0.2946,0.0,0.0,0.0,0.0001,1.0,1.0,1.0,0.6252,0.0,0.0,0.0,0.0001,1.0,1.0,1.0,0.9033,0.0,0.0,0.0,0.0001
COMTE,LSTMFCN,46,1,0,52.6457,0.0,0.0,3.6245,45.2473,5.7423,0.9752,1.0,0.998,0.0,0.0064,1.0,0.9752,1.0,0.9995,1.0,0.9974,0.0,0.0036,1.0,0.9734,1.0,0.9959,1.0,0.9996,0.0,0.0023,0.0,0.2873,1.0,0.9617,1.0,1.0,0.0,0.0019,0.0,0.0013,0.0,0.2966,1.0,1.0,0.0,0.0018,0.0,0.0002,0.0,0.0115,1.0,1.0,0.0,0.0021,0.0,0.0,0.0,0.0011,1.0,1.0,0.0,0.0035,0.0,0.0,0.0,0.0002,1.0,1.0,0.0,0.013,0.0,0.0,0.0,0.0001,1.0,1.0,0.0,0.0459,0.0,0.0,0.0,0.0001,1.0,1.0,0.0,0.1903,0.0,0.0,0.0,0.0001,1.0,1.0,1.0,0.8019,0.0,0.0,0.0,0.0001
COMTE,LSTMFCN,56,1,0,51.7641,0.0,0.0,2.5898,41.0171,5.3108,0.9752,1.0,0.9988,0.0,0.0367,1.0,0.9752,1.0,0.9995,1.0,0.9994,0.0,0.0101,1.0,0.7649,1.0,0.9959,1.0,0.9999,0.0,0.0041,1.0,0.7365,1.0,0.9617,1.0,1.0,0.0,0.0023,0.0,0.0029,0.0,0.2966,1.0,1.0,0.0,0.002,0.0,0.0001,0.0,0.0115,1.0,1.0,0.0,0.0015,0.0,0.0,0.0,0.0011,1.0,1.0,0.0,0.0011,0.0,0.0,0.0,0.0002,1.0,1.0,0.0,0.0014,0.0,0.0,0.0,0.0001,1.0,1.0,0.0,0.0035,0.0,0.0,0.0,0.0001,1.0,1.0,0.0,0.0095,0.0,0.0,0.0,0.0001,1.0,1.0,0.0,0.035,0.0,0.0,0.0,0.0001
COMTE,LSTMFCN,80,1,0,54.566,0.0,0.0,3.2318,42.8837,5.7853,0.7961,1.0,0.9976,0.0,0.0138,1.0,0.7961,1.0,0.9998,1.0,0.9979,0.0,0.0031,1.0,0.7353,1.0,0.999,1.0,0.9998,0.0,0.0008,0.0,0.4887,1.0,0.9957,1.0,1.0,0.0,0.0004,0.0,0.0407,1.0,0.9803,1.0,1.0,0.0,0.0002,0.0,0.0024,1.0,0.881,1.0,1.0,0.0,0.0001,0.0,0.0002,0.0,0.4384,1.0,1.0,0.0,0.0,0.0,0.0,0.0,0.1117,1.0,1.0,0.0,0.0,0.0,0.0,0.0,0.0293,1.0,1.0,0.0,0.0,0.0,0.0,0.0,0.0079,1.0,1.0,0.0,0.0001,0.0,0.0,0.0,0.0022,1.0,1.0,0.0,0.0001,0.0,0.0,0.0,0.0007
COMTE,LSTMFCN,91,0,1,52.5673,0.0,0.0,2.9553,81.7645,10.8182,0.9961,1.0,0.9998,1.0,0.9999,1.0,0.9961,0.0,0.0006,1.0,0.9998,1.0,0.9964,1.0,0.9976,0.0,0.0002,0.0,0.0594,1.0,0.8727,1.0,1.0,0.0,0.0001,0.0,0.0002,0.0,0.0478,1.0,1.0,0.0,0.0001,0.0,0.0,0.0,0.0014,1.0,1.0,0.0,0.0001,0.0,0.0,0.0,0.0001,1.0,1.0,0.0,0.0003,0.0,0.0,0.0,0.0,1.0,1.0,0.0,0.0009,0.0,0.0,0.0,0.0,1.0,1.0,0.0,0.0087,0.0,0.0,0.0,0.0,1.0,1.0,0.0,0.0985,0.0,0.0,0.0,0.0,1.0,1.0,1.0,0.6516,0.0,0.0,0.0,0.0,1.0,1.0,1.0,0.9544
COMTE,LSTMFCN,88,1,0,52.9267,0.0208,0.0,2.6273,36.2642,4.8188,0.7961,1.0,0.9905,0.0,0.008,1.0,0.7961,1.0,0.9998,1.0,0.9942,0.0,0.0054,1.0,0.5053,1.0,0.999,1.0,0.9997,0.0,0.0077,1.0,0.719,1.0,0.9957,1.0,1.0,0.0,0.0762,0.0,0.0348,1.0,0.9803,1.0,1.0,1.0,0.7081,0.0,0.0006,1.0,0.881,1.0,1.0,1.0,0.9719,0.0,0.0,0.0,0.4384,1.0,1.0,1.0,0.994,0.0,0.0,0.0,0.1117,1.0,1.0,1.0,0.9982,0.0,0.0,0.0,0.0293,1.0,1.0,1.0,0.999,0.0,0.0,0.0,0.0079,1.0,1.0,1.0,0.9995,0.0,0.0,0.0,0.0022,1.0,1.0,1.0,0.9998,0.0,0.0,0.0,0.0007
COMTE,LSTMFCN,19,1,0,70.638,0.0,0.1,4.1619,39.0677,5.8719,0.9963,1.0,0.9579,0.0,0.0024,1.0,0.9963,1.0,0.9997,1.0,0.9868,0.0,0.0011,1.0,0.9957,1.0,0.9994,1.0,0.9948,0.0,0.0007,1.0,0.9919,1.0,0.998,1.0,1.0,0.0,0.0006,0.0,0.1008,1.0,0.9806,1.0,1.0,0.0,0.0005,0.0,0.0009,1.0,0.8165,1.0,1.0,0.0,0.0003,0.0,0.0,0.0,0.4201,1.0,1.0,0.0,0.0002,0.0,0.0,0.0,0.0934,1.0,1.0,0.0,0.0003,0.0,0.0,0.0,0.0177,1.0,1.0,0.0,0.0004,0.0,0.0,0.0,0.005,1.0,1.0,0.0,0.0008,0.0,0.0,0.0,0.0021,1.0,1.0,0.0,0.0025,0.0,0.0,0.0,0.0012
COMTE,LSTMFCN,89,1,0,55.7821,0.0,0.0,2.983,46.4136,5.7499,0.9752,1.0,0.9993,0.0,0.0107,1.0,0.9752,1.0,0.9995,1.0,0.9998,0.0,0.0032,1.0,0.9545,1.0,0.9959,1.0,1.0,0.0,0.0015,0.0,0.3184,1.0,0.9617,1.0,1.0,0.0,0.0009,0.0,0.135,0.0,0.2966,1.0,1.0,0.0,0.0009,0.0,0.0,0.0,0.0115,1.0,1.0,0.0,0.0007,0.0,0.0,0.0,0.0011,1.0,1.0,0.0,0.0005,0.0,0.0,0.0,0.0002,1.0,1.0,0.0,0.0005,0.0,0.0,0.0,0.0001,1.0,1.0,0.0,0.0007,0.0,0.0,0.0,0.0001,1.0,1.0,0.0,0.0012,0.0,0.0,0.0,0.0001,1.0,1.0,0.0,0.0035,0.0,0.0,0.0,0.0001
COMTE,LSTMFCN,61,1,0,53.2421,0.0104,0.0,3.6709,51.8329,6.178,0.9752,1.0,0.9573,0.0,0.0039,1.0,0.9752,1.0,0.9995,1.0,0.9766,0.0,0.0023,1.0,0.9463,1.0,0.9959,1.0,0.9973,0.0,0.0015,1.0,0.5824,1.0,0.9617,1.0,1.0,0.0,0.0011,0.0,0.0001,0.0,0.2966,1.0,1.0,0.0,0.0007,0.0,0.0,0.0,0.0115,1.0,1.0,0.0,0.0004,0.0,0.0,0.0,0.0011,1.0,1.0,0.0,0.0001,0.0,0.0,0.0,0.0002,1.0,1.0,0.0,0.0,0.0,0.0,0.0,0.0001,1.0,1.0,0.0,0.0,0.0,0.0,0.0,0.0001,1.0,1.0,0.0,0.0001,0.0,0.0,0.0,0.0001,1.0,1.0,0.0,0.0002,0.0,0.0,0.0,0.0001
COMTE,LSTMFCN,65,0,1,57.1182,0.0,0.0,3.1803,39.5121,5.3619,0.9826,1.0,0.9409,1.0,1.0,1.0,0.9826,0.0,0.0005,1.0,0.9369,1.0,0.9999,1.0,0.9718,0.0,0.0001,1.0,0.6725,1.0,0.9995,1.0,0.9679,0.0,0.0001,1.0,0.6262,1.0,0.9942,1.0,0.995,0.0,0.0001,0.0,0.2532,1.0,0.843,1.0,1.0,0.0,0.0,0.0,0.0,0.0,0.1079,1.0,1.0,0.0,0.0001,0.0,0.0,0.0,0.0038,1.0,1.0,0.0,0.0001,0.0,0.0,0.0,0.0002,1.0,1.0,0.0,0.0001,0.0,0.0,0.0,0.0,1.0,1.0,0.0,0.0002,0.0,0.0,0.0,0.0,1.0,1.0,0.0,0.0006,0.0,0.0,0.0,0.0,1.0,1.0,0.0,0.0085
COMTE,LSTMFCN,47,1,0,55.5774,0.0,0.0,1.6249,30.1514,4.7618,0.9872,1.0,0.6632,0.0,0.0001,1.0,0.9872,1.0,1.0,1.0,0.6866,0.0,0.0001,1.0,0.9823,1.0,0.9999,1.0,0.8369,0.0,0.0001,1.0,0.8138,1.0,0.9998,1.0,0.8626,0.0,0.0001,0.0,0.0531,1.0,0.9982,1.0,0.9846,0.0,0.0001,0.0,0.0145,1.0,0.9678,1.0,1.0,0.0,0.0001,0.0,0.0015,1.0,0.535,1.0,1.0,0.0,0.0001,0.0,0.0,0.0,0.0774,1.0,1.0,0.0,0.0001,0.0,0.0,0.0,0.0164,1.0,1.0,0.0,0.0001,0.0,0.0,0.0,0.0051,1.0,1.0,0.0,0.0004,0.0,0.0,0.0,0.0023,1.0,1.0,0.0,0.0021,0.0,0.0,0.0,0.0014
COMTE,LSTMFCN,49,1,0,57.0536,0.0208,0.1,2.6884,37.3795,5.2516,0.9994,1.0,0.8042,0.0,0.0003,1.0,0.9994,1.0,0.9999,1.0,0.9806,0.0,0.0001,1.0,0.9985,1.0,0.999,1.0,0.9897,0.0,0.0,1.0,0.9011,1.0,0.9879,1.0,0.9806,0.0,0.0,1.0,0.8496,1.0,0.9173,1.0,0.9999,0.0,0.0,0.0,0.0,0.0,0.2513,1.0,1.0,0.0,0.0001,0.0,0.0,0.0,0.0088,1.0,1.0,0.0,0.0002,0.0,0.0,0.0,0.0004,1.0,1.0,0.0,0.0004,0.0,0.0,0.0,0.0001,1.0,1.0,0.0,0.0004,0.0,0.0,0.0,0.0,1.0,1.0,0.0,0.0004,0.0,0.0,0.0,0.0,1.0,1.0,0.0,0.0006,0.0,0.0,0.0,0.0
COMTE,LSTMFCN,7,1,0,56.1645,0.0,0.0,2.5024,40.3751,5.4619,0.9774,1.0,0.9923,0.0,0.0066,1.0,0.9774,1.0,0.9997,1.0,0.9939,0.0,0.0026,1.0,0.9718,1.0,0.9965,1.0,0.9996,0.0,0.0016,0.0,0.3787,1.0,0.9717,1.0,0.9999,0.0,0.0027,0.0,0.0182,0.0,0.4882,1.0,1.0,0.0,0.0195,0.0,0.0,0.0,0.0219,1.0,1.0,0.0,0.269,0.0,0.0,0.0,0.0019,1.0,1.0,1.0,0.9176,0.0,0.0,0.0,0.0004,1.0,1.0,1.0,0.9932,0.0,0.0,0.0,0.0001,1.0,1.0,1.0,0.9986,0.0,0.0,0.0,0.0,1.0,1.0,1.0,0.9997,0.0,0.0,0.0,0.0,1.0,1.0,1.0,0.9999,0.0,0.0,0.0,0.0
COMTE,LSTMFCN,97,0,1,58.4901,0.0,0.0,2.217,34.8017,5.292,0.9826,1.0,0.9084,1.0,1.0,1.0,0.9826,0.0,0.0005,1.0,0.9507,1.0,0.9999,1.0,0.9668,0.0,0.0001,0.0,0.3062,1.0,0.9996,1.0,0.999,0.0,0.0001,0.0,0.0716,1.0,0.9967,1.0,1.0,0.0,0.0001,0.0,0.0003,1.0,0.9412,1.0,1.0,0.0,0.0,0.0,0.0,0.0,0.4367,1.0,1.0,0.0,0.0001,0.0,0.0,0.0,0.0986,1.0,1.0,0.0,0.0001,0.0,0.0,0.0,0.0314,1.0,1.0,0.0,0.0001,0.0,0.0,0.0,0.0131,1.0,1.0,0.0,0.0002,0.0,0.0,0.0,0.0082,1.0,1.0,0.0,0.0006,0.0,0.0,0.0,0.0062,1.0,1.0,0.0,0.0085
COMTE,LSTMFCN,59,0,1,56.7389,0.0208,0.0,1.6182,31.0532,4.4507,0.8298,1.0,0.8947,1.0,0.9999,1.0,0.8298,0.0,0.0002,1.0,0.8731,1.0,0.9998,1.0,0.812,0.0,0.0001,1.0,0.5716,1.0,0.9988,1.0,0.9807,0.0,0.0001,0.0,0.1123,1.0,0.9681,1.0,0.9985,0.0,0.0001,0.0,0.0063,0.0,0.3856,1.0,0.998,0.0,0.0002,0.0,0.0,0.0,0.0274,1.0,1.0,0.0,0.0004,0.0,0.0,0.0,0.0039,1.0,1.0,0.0,0.0007,0.0,0.0,0.0,0.001,1.0,1.0,0.0,0.0014,0.0,0.0,0.0,0.0004,1.0,1.0,0.0,0.0066,0.0,0.0,0.0,0.0002,1.0,1.0,0.0,0.0873,0.0,0.0,0.0,0.0001,1.0,1.0,1.0,0.7172
COMTE,LSTMFCN,95,1,0,52.4424,0.0,0.0,1.6919,38.1738,5.2,0.9774,1.0,0.9915,0.0,0.0077,1.0,0.9774,1.0,0.9997,1.0,0.9974,0.0,0.0009,1.0,0.9781,1.0,0.9965,1.0,0.9999,0.0,0.0001,0.0,0.1072,1.0,0.9717,1.0,0.9999,0.0,0.0,0.0,0.0023,0.0,0.4882,1.0,1.0,0.0,0.0,0.0,0.0,0.0,0.0219,1.0,1.0,0.0,0.0,0.0,0.0,0.0,0.0019,1.0,1.0,0.0,0.0,0.0,0.0,0.0,0.0004,1.0,1.0,0.0,0.0,0.0,0.0,0.0,0.0001,1.0,1.0,0.0,0.0,0.0,0.0,0.0,0.0,1.0,1.0,0.0,0.0,0.0,0.0,0.0,0.0,1.0,1.0,0.0,0.0,0.0,0.0,0.0,0.0
COMTE,LSTMFCN,13,0,1,53.7227,0.0,0.0,2.1582,29.5777,4.0013,0.8298,1.0,0.9961,1.0,1.0,1.0,0.8298,0.0,0.0002,1.0,0.9948,1.0,1.0,1.0,0.6776,0.0,0.0001,1.0,0.9901,1.0,0.9999,1.0,0.9089,0.0,0.0001,1.0,0.9315,1.0,0.9999,1.0,0.9729,0.0,0.0001,0.0,0.0216,1.0,0.9996,1.0,1.0,0.0,0.0002,0.0,0.0,1.0,0.9965,1.0,1.0,0.0,0.0004,0.0,0.0,1.0,0.9587,1.0,1.0,0.0,0.0007,0.0,0.0,1.0,0.6085,1.0,1.0,0.0,0.0014,0.0,0.0,0.0,0.1344,1.0,1.0,0.0,0.0066,0.0,0.0,0.0,0.031,1.0,1.0,0.0,0.0873,0.0,0.0,0.0,0.0109,1.0,1.0,1.0,0.7172
COMTE,LSTMFCN,1,1,0,53.1761,0.0104,0.0,2.7727,42.4157,6.04,0.9774,1.0,0.9988,0.0,0.005,1.0,0.9774,1.0,0.9997,1.0,0.9996,0.0,0.0026,1.0,0.8955,1.0,0.9965,1.0,0.9998,0.0,0.0015,0.0,0.2419,1.0,0.9717,1.0,1.0,0.0,0.0009,0.0,0.0169,0.0,0.4882,1.0,1.0,0.0,0.0024,0.0,0.0,0.0,0.0219,1.0,1.0,0.0,0.015,0.0,0.0,0.0,0.0019,1.0,1.0,0.0,0.0943,0.0,0.0,0.0,0.0004,1.0,1.0,1.0,0.5524,0.0,0.0,0.0,0.0001,1.0,1.0,1.0,0.9615,0.0,0.0,0.0,0.0,1.0,1.0,1.0,0.998,0.0,0.0,0.0,0.0,1.0,1.0,1.0,0.9998,0.0,0.0,0.0,0.0
COMTE,LSTMFCN,31,1,0,53.4307,0.0,0.0,3.2657,43.9535,5.4352,0.9752,1.0,0.9699,0.0,0.0058,1.0,0.9752,1.0,0.9995,1.0,0.9887,0.0,0.0037,1.0,0.8988,1.0,0.9959,1.0,0.9985,0.0,0.0028,0.0,0.4137,1.0,0.9617,1.0,0.9999,0.0,0.0022,0.0,0.1402,0.0,0.2966,1.0,1.0,0.0,0.0023,0.0,0.0002,0.0,0.0115,1.0,0.9988,0.0,0.0015,0.0,0.0,0.0,0.0011,1.0,1.0,0.0,0.0005,0.0,0.0,0.0,0.0002,1.0,1.0,0.0,0.0003,0.0,0.0,0.0,0.0001,1.0,1.0,0.0,0.0003,0.0,0.0,0.0,0.0001,1.0,1.0,0.0,0.0008,0.0,0.0,0.0,0.0001,1.0,1.0,0.0,0.0053,0.0,0.0,0.0,0.0001
COMTE,LSTMFCN,27,1,0,52.7581,0.0,0.0,3.0914,37.8809,5.3462,0.9808,1.0,0.9646,0.0,0.0019,1.0,0.9808,1.0,0.9999,1.0,0.9753,0.0,0.0007,1.0,0.9665,1.0,0.9995,1.0,0.9733,0.0,0.0004,1.0,0.9759,1.0,0.9977,1.0,0.9996,0.0,0.0004,0.0,0.0044,1.0,0.9714,1.0,1.0,0.0,0.0008,0.0,0.0002,1.0,0.5641,1.0,1.0,0.0,0.001,0.0,0.0,0.0,0.0788,1.0,1.0,0.0,0.0007,0.0,0.0,0.0,0.0202,1.0,1.0,0.0,0.0007,0.0,0.0,0.0,0.0102,1.0,1.0,0.0,0.0012,0.0,0.0,0.0,0.0064,1.0,1.0,0.0,0.003,0.0,0.0,0.0,0.0048,1.0,1.0,0.0,0.01,0.0,0.0,0.0,0.0026
COMTE,LSTMFCN,9,0,1,53.2469,0.0,0.0,1.6979,23.5678,3.4711,0.8298,1.0,0.9508,1.0,0.9999,1.0,0.8298,0.0,0.0002,1.0,0.9491,1.0,0.9998,1.0,0.8294,0.0,0.0001,1.0,0.7018,1.0,0.9996,1.0,0.9883,0.0,0.0001,0.0,0.0598,1.0,0.9946,1.0,0.988,0.0,0.0001,0.0,0.0001,1.0,0.5351,1.0,0.9996,0.0,0.0002,0.0,0.0004,0.0,0.0295,1.0,1.0,0.0,0.0004,0.0,0.0,0.0,0.0058,1.0,1.0,0.0,0.0007,0.0,0.0,0.0,0.002,1.0,1.0,0.0,0.0014,0.0,0.0,0.0,0.0009,1.0,1.0,0.0,0.0066,0.0,0.0,0.0,0.0005,1.0,1.0,0.0,0.0873,0.0,0.0,0.0,0.0004,1.0,1.0,1.0,0.7172
COMTE,LSTMFCN,16,1,0,52.4759,0.0,0.0,2.8876,47.5099,6.2192,0.9774,1.0,0.9995,0.0,0.0941,1.0,0.9774,1.0,0.9997,1.0,0.9998,0.0,0.0212,1.0,0.9013,1.0,0.9965,1.0,0.9999,0.0,0.0122,1.0,0.7199,1.0,0.9717,1.0,1.0,0.0,0.0106,0.0,0.0005,0.0,0.4882,1.0,1.0,0.0,0.0109,0.0,0.0,0.0,0.0219,1.0,1.0,0.0,0.005,0.0,0.0,0.0,0.0019,1.0,1.0,0.0,0.0012,0.0,0.0,0.0,0.0004,1.0,1.0,0.0,0.0004,0.0,0.0,0.0,0.0001,1.0,1.0,0.0,0.0003,0.0,0.0,0.0,0.0,1.0,1.0,0.0,0.0005,0.0,0.0,0.0,0.0,1.0,1.0,0.0,0.0009,0.0,0.0,0.0,0.0
COMTE,LSTMFCN,60,0,1,52.1444,0.0,0.0,2.4124,74.1766,10.6656,0.9677,1.0,0.9994,1.0,0.9999,1.0,0.9677,0.0,0.0016,1.0,0.9954,1.0,0.9979,1.0,0.9917,0.0,0.0009,1.0,0.7652,1.0,0.9444,1.0,0.9984,0.0,0.0008,0.0,0.0391,0.0,0.2627,1.0,1.0,0.0,0.0008,0.0,0.0,0.0,0.0156,1.0,1.0,0.0,0.0009,0.0,0.0,0.0,0.0016,1.0,1.0,0.0,0.0017,0.0,0.0,0.0,0.0003,1.0,1.0,0.0,0.0043,0.0,0.0,0.0,0.0001,1.0,1.0,0.0,0.0071,0.0,0.0,0.0,0.0,1.0,1.0,0.0,0.0096,0.0,0.0,0.0,0.0,1.0,1.0,0.0,0.0098,0.0,0.0,0.0,0.0,1.0,1.0,0.0,0.0096
COMTE,LSTMFCN,15,1,0,56.2788,0.0,0.0,1.3463,28.2108,3.8444,0.9872,1.0,0.9573,0.0,0.0004,1.0,0.9872,1.0,1.0,1.0,0.9599,0.0,0.0001,1.0,0.9849,1.0,0.9999,1.0,0.9676,0.0,0.0001,1.0,0.9903,1.0,0.9998,1.0,0.9955,0.0,0.0001,1.0,0.8084,1.0,0.9982,1.0,0.9999,0.0,0.0001,0.0,0.0,1.0,0.9678,1.0,1.0,0.0,0.0003,0.0,0.0021,1.0,0.535,1.0,1.0,0.0,0.0004,0.0,0.0,0.0,0.0774,1.0,1.0,0.0,0.0008,0.0,0.0,0.0,0.0164,1.0,1.0,0.0,0.0026,0.0,0.0,0.0,0.0051,1.0,1.0,0.0,0.0117,0.0,0.0,0.0,0.0023,1.0,1.0,0.0,0.0606,0.0,0.0,0.0,0.0014
COMTE,LSTMFCN,98,0,1,53.4312,0.0,0.0,4.6871,34.1985,6.1847,0.9975,1.0,0.7568,1.0,0.9934,1.0,0.9975,0.0,0.0053,1.0,0.6109,1.0,0.9745,1.0,0.9995,0.0,0.0021,0.0,0.0334,1.0,0.7592,1.0,1.0,0.0,0.0012,0.0,0.0004,0.0,0.1384,1.0,1.0,0.0,0.0008,0.0,0.0001,0.0,0.0122,1.0,1.0,0.0,0.0005,0.0,0.0,0.0,0.0018,1.0,1.0,0.0,0.0005,0.0,0.0,0.0,0.0004,1.0,1.0,0.0,0.0007,0.0,0.0,0.0,0.0001,1.0,1.0,0.0,0.0009,0.0,0.0,0.0,0.0001,1.0,1.0,0.0,0.0013,0.0,0.0,0.0,0.0,1.0,1.0,0.0,0.0022,0.0,0.0,0.0,0.0,1.0,1.0,0.0,0.0048
COMTE,LSTMFCN,34,1,0,52.2472,0.0,0.0,3.2826,43.6199,6.5384,0.9808,1.0,0.6481,0.0,0.0003,1.0,0.9808,1.0,0.9999,1.0,0.8553,0.0,0.0,1.0,0.9837,1.0,0.9995,1.0,0.9927,0.0,0.0,1.0,0.9057,1.0,0.9977,1.0,0.9978,0.0,0.0,1.0,0.9911,1.0,0.9714,1.0,1.0,0.0,0.0,0.0,0.024,1.0,0.5641,1.0,1.0,0.0,0.0,0.0,0.0,0.0,0.0788,1.0,1.0,0.0,0.0,0.0,0.0,0.0,0.0202,1.0,1.0,0.0,0.0001,0.0,0.0,0.0,0.0102,1.0,1.0,0.0,0.0001,0.0,0.0,0.0,0.0064,1.0,1.0,0.0,0.0001,0.0,0.0,0.0,0.0048,1.0,1.0,0.0,0.0002,0.0,0.0,0.0,0.0026
COMTE,LSTMFCN,14,0,1,55.9397,0.0,0.0,3.1658,73.028,9.237,0.9826,1.0,1.0,1.0,1.0,1.0,0.9826,0.0,0.0005,1.0,1.0,1.0,1.0,1.0,0.9652,0.0,0.0001,1.0,0.9998,1.0,1.0,1.0,0.9963,0.0,0.0001,1.0,0.9861,1.0,1.0,1.0,0.9995,0.0,0.0001,0.0,0.004,1.0,1.0,1.0,0.9999,0.0,0.0,0.0,0.0003,1.0,0.9999,1.0,1.0,0.0,0.0001,0.0,0.0018,1.0,0.9994,1.0,1.0,0.0,0.0001,0.0,0.0,1.0,0.9943,1.0,1.0,0.0,0.0001,0.0,0.0,1.0,0.961,1.0,1.0,0.0,0.0002,0.0,0.0,1.0,0.7764,1.0,1.0,0.0,0.0006,0.0,0.0,0.0,0.3882,1.0,1.0,0.0,0.0085
COMTE,LSTMFCN,66,1,0,53.2357,0.0,0.0,3.4763,46.4258,5.6309,0.9752,1.0,0.9928,0.0,0.0064,1.0,0.9752,1.0,0.9995,1.0,0.9947,0.0,0.0042,1.0,0.9484,1.0,0.9959,1.0,0.9994,0.0,0.0027,0.0,0.2946,1.0,0.9617,1.0,1.0,0.0,0.0018,0.0,0.0009,0.0,0.2966,1.0,1.0,0.0,0.0012,0.0,0.0,0.0,0.0115,1.0,1.0,0.0,0.001,0.0,0.0,0.0,0.0011,1.0,1.0,0.0,0.0008,0.0,0.0,0.0,0.0002,1.0,1.0,0.0,0.0005,0.0,0.0,0.0,0.0001,1.0,1.0,0.0,0.0003,0.0,0.0,0.0,0.0001,1.0,1.0,0.0,0.0003,0.0,0.0,0.0,0.0001,1.0,1.0,0.0,0.0006,0.0,0.0,0.0,0.0001
COMTE,LSTMFCN,53,0,1,52.3849,0.0,0.0,2.1879,24.6747,3.6059,0.8298,1.0,0.9813,1.0,0.9999,1.0,0.8298,0.0,0.0002,1.0,0.9572,1.0,0.9999,1.0,0.9054,0.0,0.0001,1.0,0.9744,1.0,0.9998,1.0,0.8519,0.0,0.0001,1.0,0.5773,1.0,0.9987,1.0,0.9861,0.0,0.0001,0.0,0.0011,1.0,0.9584,1.0,0.9988,0.0,0.0002,0.0,0.0001,0.0,0.3183,1.0,1.0,0.0,0.0004,0.0,0.0,0.0,0.0353,1.0,1.0,0.0,0.0007,0.0,0.0,0.0,0.0045,1.0,1.0,0.0,0.0014,0.0,0.0,0.0,0.0011,1.0,1.0,0.0,0.0066,0.0,0.0,0.0,0.0004,1.0,1.0,0.0,0.0873,0.0,0.0,0.0,0.0003,1.0,1.0,1.0,0.7172
COMTE,LSTMFCN,10,0,1,55.1618,0.0,0.0,2.9905,40.0968,5.8437,0.9906,1.0,0.5389,1.0,0.9948,1.0,0.9906,0.0,0.0066,1.0,0.5006,1.0,0.9417,1.0,0.9841,0.0,0.0007,0.0,0.0004,0.0,0.2363,1.0,0.9999,0.0,0.0001,0.0,0.0,0.0,0.0179,1.0,1.0,0.0,0.0001,0.0,0.0,0.0,0.0021,1.0,1.0,0.0,0.0001,0.0,0.0,0.0,0.0003,1.0,1.0,0.0,0.0001,0.0,0.0,0.0,0.0001,1.0,1.0,0.0,0.0002,0.0,0.0,0.0,0.0,1.0,1.0,0.0,0.0004,0.0,0.0,0.0,0.0,1.0,1.0,0.0,0.0013,0.0,0.0,0.0,0.0,1.0,1.0,0.0,0.0037,0.0,0.0,0.0,0.0,1.0,1.0,0.0,0.0084
COMTE,LSTMFCN,48,1,0,52.7376,0.0,0.0,1.974,38.1383,5.1404,0.9752,1.0,0.9986,0.0,0.0101,1.0,0.9752,1.0,0.9995,1.0,0.9996,0.0,0.0026,1.0,0.9779,1.0,0.9959,1.0,0.9995,0.0,0.0009,1.0,0.8568,1.0,0.9617,1.0,0.9999,0.0,0.0006,0.0,0.0208,0.0,0.2966,1.0,1.0,0.0,0.0005,0.0,0.0,0.0,0.0115,1.0,1.0,0.0,0.0004,0.0,0.0,0.0,0.0011,1.0,1.0,0.0,0.0004,0.0,0.0,0.0,0.0002,1.0,1.0,0.0,0.0007,0.0,0.0,0.0,0.0001,1.0,1.0,0.0,0.0018,0.0,0.0,0.0,0.0001,1.0,1.0,0.0,0.0047,0.0,0.0,0.0,0.0001,1.0,1.0,0.0,0.0129,0.0,0.0,0.0,0.0001
COMTE,LSTMFCN,79,1,0,52.0733,0.0,0.0,3.5034,49.0306,6.1711,0.9752,1.0,0.9998,0.0,0.0064,1.0,0.9752,1.0,0.9995,1.0,0.9998,0.0,0.0038,1.0,0.968,1.0,0.9959,1.0,1.0,0.0,0.0032,0.0,0.1189,1.0,0.9617,1.0,1.0,0.0,0.0032,0.0,0.0311,0.0,0.2966,1.0,1.0,0.0,0.004,0.0,0.0,0.0,0.0115,1.0,1.0,0.0,0.004,0.0,0.0,0.0,0.0011,1.0,1.0,0.0,0.0024,0.0,0.0,0.0,0.0002,1.0,1.0,0.0,0.0013,0.0,0.0,0.0,0.0001,1.0,1.0,0.0,0.0014,0.0,0.0,0.0,0.0001,1.0,1.0,0.0,0.0019,0.0,0.0,0.0,0.0001,1.0,1.0,0.0,0.0044,0.0,0.0,0.0,0.0001
COMTE,LSTMFCN,87,0,1,55.3696,0.0,0.0,1.685,23.5917,3.3278,0.8298,1.0,0.9347,1.0,0.9999,1.0,0.8298,0.0,0.0002,1.0,0.9623,1.0,0.9999,1.0,0.7077,0.0,0.0001,1.0,0.8955,1.0,0.9998,1.0,0.96,0.0,0.0001,0.0,0.4768,1.0,0.9994,1.0,0.9967,0.0,0.0001,0.0,0.0007,1.0,0.9948,1.0,0.9998,0.0,0.0002,0.0,0.0,1.0,0.9438,1.0,0.9999,0.0,0.0004,0.0,0.0,1.0,0.5632,1.0,1.0,0.0,0.0007,0.0,0.0,0.0,0.156,1.0,1.0,0.0,0.0014,0.0,0.0,0.0,0.0387,1.0,1.0,0.0,0.0066,0.0,0.0,0.0,0.0124,1.0,1.0,0.0,0.0873,0.0,0.0,0.0,0.0054,1.0,1.0,1.0,0.7172
COMTE,LSTMFCN,67,1,0,68.6667,0.0,0.0,2.8313,41.1063,5.5856,0.9752,1.0,0.9731,0.0,0.0022,1.0,0.9752,1.0,0.9995,1.0,0.9854,0.0,0.0015,1.0,0.9754,1.0,0.9959,1.0,0.9892,0.0,0.0018,0.0,0.1968,1.0,0.9617,1.0,0.9999,0.0,0.0085,0.0,0.13,0.0,0.2966,1.0,0.9995,0.0,0.1146,0.0,0.0,0.0,0.0115,1.0,1.0,0.0,0.4172,0.0,0.0,0.0,0.0011,1.0,1.0,1.0,0.6681,0.0,0.0,0.0,0.0002,1.0,1.0,1.0,0.8449,0.0,0.0,0.0,0.0001,1.0,1.0,1.0,0.9256,0.0,0.0,0.0,0.0001,1.0,1.0,1.0,0.9702,0.0,0.0,0.0,0.0001,1.0,1.0,1.0,0.9927,0.0,0.0,0.0,0.0001
COMTE,LSTMFCN,24,1,0,95.0318,0.0,0.0,4.6887,57.2451,8.1096,0.9994,1.0,1.0,0.0,0.0045,1.0,0.9994,1.0,0.9999,1.0,1.0,0.0,0.0016,1.0,0.9986,1.0,0.999,1.0,1.0,0.0,0.001,1.0,0.9915,1.0,0.9879,1.0,1.0,0.0,0.0011,0.0,0.0047,1.0,0.9173,1.0,1.0,0.0,0.0015,0.0,0.001,0.0,0.2513,1.0,1.0,0.0,0.0027,0.0,0.0,0.0,0.0088,1.0,1.0,0.0,0.009,0.0,0.0,0.0,0.0004,1.0,1.0,0.0,0.0352,0.0,0.0,0.0,0.0001,1.0,1.0,0.0,0.2045,0.0,0.0,0.0,0.0,1.0,1.0,1.0,0.8049,0.0,0.0,0.0,0.0,1.0,1.0,1.0,0.9876,0.0,0.0,0.0,0.0
COMTE,LSTMFCN,8,1,0,57.8115,0.0104,0.0,1.5775,33.248,4.6507,0.9774,1.0,0.9812,0.0,0.0098,1.0,0.9774,1.0,0.9997,1.0,0.9873,0.0,0.0012,1.0,0.9667,1.0,0.9965,1.0,0.9993,0.0,0.0001,0.0,0.1867,1.0,0.9717,1.0,1.0,0.0,0.0,0.0,0.0615,0.0,0.4882,1.0,1.0,0.0,0.0,0.0,0.0,0.0,0.0219,1.0,1.0,0.0,0.0,0.0,0.0,0.0,0.0019,1.0,1.0,0.0,0.0,0.0,0.0,0.0,0.0004,1.0,1.0,0.0,0.0,0.0,0.0,0.0,0.0001,1.0,1.0,0.0,0.0,0.0,0.0,0.0,0.0,1.0,1.0,0.0,0.0,0.0,0.0,0.0,0.0,1.0,1.0,0.0,0.0,0.0,0.0,0.0,0.0
