Method,Model,Sample_Index,Original_Class,Counterfactual_Class,Generation_Time,Tp_Sparsity,Seg_Sparsity,DTW,L1,L2,CF_Conf,Orig_Rob_Gauss_eps0.00,Orig_Conf_Gauss_eps0.00,Orig_Rob_Adv_eps0.00,Orig_Conf_Adv_eps0.00,CF_Rob_Gauss_eps0.00,CF_Conf_Gauss_eps0.00,CF_Rob_Adv_eps0.00,CF_Conf_Adv_eps0.00,Orig_Rob_Gauss_eps0.20,Orig_Conf_Gauss_eps0.20,Orig_Rob_Adv_eps0.20,Orig_Conf_Adv_eps0.20,CF_Rob_Gauss_eps0.20,CF_Conf_Gauss_eps0.20,CF_Rob_Adv_eps0.20,CF_Conf_Adv_eps0.20,Orig_Rob_Gauss_eps0.40,Orig_Conf_Gauss_eps0.40,Orig_Rob_Adv_eps0.40,Orig_Conf_Adv_eps0.40,CF_Rob_Gauss_eps0.40,CF_Conf_Gauss_eps0.40,CF_Rob_Adv_eps0.40,CF_Conf_Adv_eps0.40,Orig_Rob_Gauss_eps0.60,Orig_Conf_Gauss_eps0.60,Orig_Rob_Adv_eps0.60,Orig_Conf_Adv_eps0.60,CF_Rob_Gauss_eps0.60,CF_Conf_Gauss_eps0.60,CF_Rob_Adv_eps0.60,CF_Conf_Adv_eps0.60,Orig_Rob_Gauss_eps0.80,Orig_Conf_Gauss_eps0.80,Orig_Rob_Adv_eps0.80,Orig_Conf_Adv_eps0.80,CF_Rob_Gauss_eps0.80,CF_Conf_Gauss_eps0.80,CF_Rob_Adv_eps0.80,CF_Conf_Adv_eps0.80,Orig_Rob_Gauss_eps1.00,Orig_Conf_Gauss_eps1.00,Orig_Rob_Adv_eps1.00,Orig_Conf_Adv_eps1.00,CF_Rob_Gauss_eps1.00,CF_Conf_Gauss_eps1.00,CF_Rob_Adv_eps1.00,CF_Conf_Adv_eps1.00,Orig_Rob_Gauss_eps1.20,Orig_Conf_Gauss_eps1.20,Orig_Rob_Adv_eps1.20,Orig_Conf_Adv_eps1.20,CF_Rob_Gauss_eps1.20,CF_Conf_Gauss_eps1.20,CF_Rob_Adv_eps1.20,CF_Conf_Adv_eps1.20,Orig_Rob_Gauss_eps1.40,Orig_Conf_Gauss_eps1.40,Orig_Rob_Adv_eps1.40,Orig_Conf_Adv_eps1.40,CF_Rob_Gauss_eps1.40,CF_Conf_Gauss_eps1.40,CF_Rob_Adv_eps1.40,CF_Conf_Adv_eps1.40,Orig_Rob_Gauss_eps1.60,Orig_Conf_Gauss_eps1.60,Orig_Rob_Adv_eps1.60,Orig_Conf_Adv_eps1.60,CF_Rob_Gauss_eps1.60,CF_Conf_Gauss_eps1.60,CF_Rob_Adv_eps1.60,CF_Conf_Adv_eps1.60,Orig_Rob_Gauss_eps1.80,Orig_Conf_Gauss_eps1.80,Orig_Rob_Adv_eps1.80,Orig_Conf_Adv_eps1.80,CF_Rob_Gauss_eps1.80,CF_Conf_Gauss_eps1.80,CF_Rob_Adv_eps1.80,CF_Conf_Adv_eps1.80,Orig_Rob_Gauss_eps2.00,Orig_Conf_Gauss_eps2.00,Orig_Rob_Adv_eps2.00,Orig_Conf_Adv_eps2.00,CF_Rob_Gauss_eps2.00,CF_Conf_Gauss_eps2.00,CF_Rob_Adv_eps2.00,CF_Conf_Adv_eps2.00
TSEVO,LSTMFCN,37,1,0,138.7544,0.8125,0.6,1.2402,7.4054,2.6301,0.5,1.0,0.9655,0.0,0.0047,1.0,0.5,1.0,0.9967,1.0,0.9715,0.0,0.0027,0.0,0.4951,1.0,0.9886,1.0,0.9893,0.0,0.0038,0.0,0.0428,1.0,0.8938,1.0,0.9998,0.0,0.0102,0.0,0.0018,0.0,0.1518,1.0,1.0,0.0,0.046,0.0,0.0107,0.0,0.0076,1.0,1.0,0.0,0.1557,0.0,0.0001,0.0,0.0018,1.0,1.0,0.0,0.3504,0.0,0.0,0.0,0.0011,1.0,1.0,0.0,0.478,0.0,0.0,0.0,0.0006,1.0,1.0,1.0,0.5628,0.0,0.0,0.0,0.0003,1.0,1.0,1.0,0.5685,0.0,0.0,0.0,0.0001,1.0,1.0,1.0,0.5749,0.0,0.0,0.0,0.0
TSEVO,LSTMFCN,62,1,0,147.7948,0.7396,0.5,1.6934,18.477,4.0671,0.5,1.0,0.9988,0.0,0.0104,1.0,0.5,1.0,0.9998,1.0,0.9991,0.0,0.0048,1.0,0.514,1.0,0.9994,1.0,0.9988,0.0,0.0035,0.0,0.005,1.0,0.9983,1.0,1.0,0.0,0.0032,0.0,0.0011,1.0,0.9853,1.0,1.0,0.0,0.0027,0.0,0.0,1.0,0.7768,1.0,1.0,0.0,0.0019,0.0,0.0,0.0,0.0771,1.0,1.0,0.0,0.0018,0.0,0.0,0.0,0.0018,1.0,1.0,0.0,0.0014,0.0,0.0,0.0,0.0001,1.0,1.0,0.0,0.0012,0.0,0.0,0.0,0.0,1.0,1.0,0.0,0.0019,0.0,0.0,0.0,0.0,1.0,1.0,0.0,0.0059,0.0,0.0,0.0,0.0
TSEVO,LSTMFCN,26,0,1,159.1189,0.8854,0.7,2.1386,7.6349,3.5405,0.5,1.0,0.9115,1.0,0.9999,1.0,0.5,0.0,0.0001,1.0,0.9463,1.0,0.9998,1.0,0.6832,0.0,0.0001,1.0,0.5812,1.0,0.9995,1.0,0.9179,0.0,0.0001,0.0,0.0444,1.0,0.9981,1.0,0.9994,0.0,0.0001,0.0,0.0001,1.0,0.9886,1.0,0.9999,0.0,0.0001,0.0,0.0001,1.0,0.9341,1.0,0.9997,0.0,0.0001,0.0,0.0,1.0,0.6961,1.0,1.0,0.0,0.0,0.0,0.0,0.0,0.3864,1.0,1.0,0.0,0.0001,0.0,0.0,0.0,0.182,1.0,1.0,0.0,0.0004,0.0,0.0,0.0,0.1158,1.0,1.0,0.0,0.0019,0.0,0.0,0.0,0.1239,1.0,1.0,0.0,0.0101
TSEVO,LSTMFCN,41,1,0,143.3368,0.875,0.8,1.1318,7.3892,2.2101,0.5005,1.0,0.6131,0.0,0.0011,1.0,0.5005,1.0,0.9989,1.0,0.6128,0.0,0.0008,0.0,0.4547,1.0,0.9979,1.0,0.5636,0.0,0.0007,0.0,0.1044,1.0,0.9948,1.0,0.9934,0.0,0.0006,0.0,0.088,1.0,0.9812,1.0,0.9989,0.0,0.0006,0.0,0.0004,1.0,0.9348,1.0,1.0,0.0,0.0007,0.0,0.0005,1.0,0.7203,1.0,1.0,0.0,0.0011,0.0,0.0,0.0,0.2243,1.0,1.0,0.0,0.0006,0.0,0.0,0.0,0.0243,1.0,1.0,0.0,0.0005,0.0,0.0,0.0,0.0019,1.0,1.0,0.0,0.0005,0.0,0.0,0.0,0.0002,1.0,1.0,0.0,0.0008,0.0,0.0,0.0,0.0001
TSEVO,LSTMFCN,35,1,0,145.2796,0.7604,0.7,1.3704,12.9284,3.2095,0.5,1.0,0.5876,0.0,0.0002,1.0,0.5,1.0,0.9999,1.0,0.5127,0.0,0.0,0.0,0.4859,1.0,0.9994,0.0,0.4558,0.0,0.0,0.0,0.0214,1.0,0.9982,1.0,0.9948,0.0,0.0,0.0,0.0112,1.0,0.9948,1.0,1.0,0.0,0.0,0.0,0.0002,1.0,0.951,1.0,1.0,0.0,0.0,0.0,0.0,1.0,0.5159,1.0,1.0,0.0,0.0,0.0,0.0,0.0,0.0823,1.0,1.0,0.0,0.0001,0.0,0.0,0.0,0.0149,1.0,1.0,0.0,0.0001,0.0,0.0,0.0,0.0037,1.0,1.0,0.0,0.0003,0.0,0.0,0.0,0.0018,1.0,1.0,0.0,0.0011,0.0,0.0,0.0,0.001
TSEVO,LSTMFCN,25,1,0,152.8258,0.9167,0.9,3.8467,10.5088,4.1011,0.5001,1.0,0.9967,0.0,0.0021,1.0,0.5001,1.0,0.9984,1.0,0.9988,0.0,0.0015,0.0,0.2394,1.0,0.9937,1.0,1.0,0.0,0.0014,0.0,0.1782,1.0,0.7809,1.0,1.0,0.0,0.0014,0.0,0.0001,0.0,0.019,1.0,1.0,0.0,0.0024,0.0,0.0,0.0,0.0003,1.0,1.0,0.0,0.0093,0.0,0.0,0.0,0.0,1.0,1.0,0.0,0.0366,0.0,0.0,0.0,0.0,1.0,1.0,0.0,0.1545,0.0,0.0,0.0,0.0,1.0,1.0,0.0,0.3622,0.0,0.0,0.0,0.0,1.0,1.0,1.0,0.5756,0.0,0.0,0.0,0.0,1.0,1.0,1.0,0.8214,0.0,0.0,0.0,0.0
TSEVO,LSTMFCN,36,1,0,141.3007,0.6667,0.5,1.3289,17.1946,3.3554,0.5,1.0,0.9727,0.0,0.0031,1.0,0.5,1.0,0.9999,1.0,0.9752,0.0,0.0014,0.0,0.1893,1.0,0.9996,1.0,0.9999,0.0,0.0011,0.0,0.0195,1.0,0.9964,1.0,0.9999,0.0,0.0013,0.0,0.0022,1.0,0.9139,1.0,1.0,0.0,0.0029,0.0,0.0097,0.0,0.256,1.0,1.0,0.0,0.0076,0.0,0.0,0.0,0.0128,1.0,1.0,0.0,0.0139,0.0,0.0,0.0,0.0008,1.0,1.0,0.0,0.0298,0.0,0.0,0.0,0.0001,1.0,1.0,0.0,0.0627,0.0,0.0,0.0,0.0,1.0,1.0,0.0,0.1489,0.0,0.0,0.0,0.0,1.0,1.0,1.0,0.5235,0.0,0.0,0.0,0.0
TSEVO,LSTMFCN,77,1,0,143.0138,0.3854,0.2,0.9502,22.5348,4.058,0.5,1.0,0.9706,0.0,0.0003,1.0,0.5,1.0,0.9999,1.0,0.9287,0.0,0.0001,1.0,0.5639,1.0,0.9998,1.0,0.988,0.0,0.0,0.0,0.2796,1.0,0.9995,1.0,0.9954,0.0,0.0,0.0,0.4372,1.0,0.9989,1.0,1.0,0.0,0.0001,0.0,0.0223,1.0,0.9957,1.0,1.0,0.0,0.0001,0.0,0.0004,1.0,0.9582,1.0,1.0,0.0,0.0002,0.0,0.0,1.0,0.67,1.0,1.0,0.0,0.0005,0.0,0.0,0.0,0.2393,1.0,1.0,0.0,0.0012,0.0,0.0,0.0,0.0633,1.0,1.0,0.0,0.0033,0.0,0.0,0.0,0.0239,1.0,1.0,0.0,0.0084,0.0,0.0,0.0,0.0133
TSEVO,LSTMFCN,21,1,0,138.386,0.625,0.5,1.6349,13.5099,3.8616,0.5001,1.0,0.9991,0.0,0.0298,1.0,0.5001,1.0,0.9973,1.0,0.9995,0.0,0.0048,0.0,0.4535,1.0,0.9889,1.0,0.9997,0.0,0.0015,0.0,0.1391,1.0,0.9039,1.0,1.0,0.0,0.0011,0.0,0.0015,0.0,0.3153,1.0,1.0,0.0,0.0012,0.0,0.0,0.0,0.0425,1.0,1.0,0.0,0.0011,0.0,0.0,0.0,0.0083,1.0,1.0,0.0,0.0005,0.0,0.0,0.0,0.0023,1.0,1.0,0.0,0.0002,0.0,0.0,0.0,0.0009,1.0,1.0,0.0,0.0001,0.0,0.0,0.0,0.0003,1.0,1.0,0.0,0.0001,0.0,0.0,0.0,0.0001,1.0,1.0,0.0,0.0002,0.0,0.0,0.0,0.0001
TSEVO,LSTMFCN,50,1,0,134.7248,0.875,0.4,2.4172,9.3821,3.2614,0.5,1.0,0.9992,0.0,0.0157,1.0,0.5,1.0,0.9983,1.0,0.9993,0.0,0.0056,0.0,0.347,1.0,0.9971,1.0,0.9999,0.0,0.0027,0.0,0.1188,1.0,0.9941,1.0,0.9999,0.0,0.0032,0.0,0.0,1.0,0.9601,1.0,1.0,0.0,0.006,0.0,0.0,1.0,0.575,1.0,1.0,0.0,0.0152,0.0,0.0,0.0,0.108,1.0,1.0,0.0,0.0287,0.0,0.0,0.0,0.0123,1.0,1.0,0.0,0.0457,0.0,0.0,0.0,0.0014,1.0,1.0,0.0,0.1384,0.0,0.0,0.0,0.0002,1.0,1.0,0.0,0.4784,0.0,0.0,0.0,0.0,1.0,1.0,1.0,0.8781,0.0,0.0,0.0,0.0
TSEVO,LSTMFCN,69,1,0,135.2152,0.7604,0.5,0.9698,6.1592,1.6196,0.5001,1.0,0.9977,0.0,0.0043,1.0,0.5001,1.0,0.9999,1.0,0.9987,0.0,0.0025,0.0,0.1752,1.0,0.9995,1.0,0.999,0.0,0.0016,0.0,0.2863,1.0,0.9972,1.0,1.0,0.0,0.0015,0.0,0.0001,1.0,0.9139,1.0,1.0,0.0,0.0017,0.0,0.0,0.0,0.2052,1.0,1.0,0.0,0.0011,0.0,0.0,0.0,0.0087,1.0,1.0,0.0,0.0007,0.0,0.0,0.0,0.0008,1.0,1.0,0.0,0.0008,0.0,0.0,0.0,0.0002,1.0,1.0,0.0,0.0012,0.0,0.0,0.0,0.0001,1.0,1.0,0.0,0.0032,0.0,0.0,0.0,0.0001,1.0,1.0,0.0,0.0106,0.0,0.0,0.0,0.0
TSEVO,LSTMFCN,96,1,0,136.1944,0.8125,0.6,1.0508,7.6235,2.3902,0.5001,1.0,0.9883,0.0,0.0022,1.0,0.5001,1.0,0.9997,1.0,0.9811,0.0,0.0005,1.0,0.5163,1.0,0.9983,1.0,0.994,0.0,0.0002,0.0,0.0278,1.0,0.9839,1.0,1.0,0.0,0.0002,0.0,0.0002,1.0,0.7329,1.0,1.0,0.0,0.0001,0.0,0.0001,0.0,0.0768,1.0,1.0,0.0,0.0,0.0,0.0,0.0,0.0055,1.0,1.0,0.0,0.0,0.0,0.0,0.0,0.0009,1.0,1.0,0.0,0.0,0.0,0.0,0.0,0.0003,1.0,1.0,0.0,0.0,0.0,0.0,0.0,0.0001,1.0,1.0,0.0,0.0,0.0,0.0,0.0,0.0,1.0,1.0,0.0,0.0,0.0,0.0,0.0,0.0
TSEVO,LSTMFCN,78,1,0,140.0873,0.6771,0.7,5.6863,23.9691,7.3242,0.5001,1.0,0.9994,0.0,0.0068,1.0,0.5001,1.0,0.9986,1.0,0.9997,0.0,0.0035,0.0,0.3617,1.0,0.9981,1.0,1.0,0.0,0.0029,0.0,0.0887,1.0,0.9958,1.0,1.0,0.0,0.0027,0.0,0.007,1.0,0.9746,1.0,1.0,0.0,0.0033,0.0,0.0001,1.0,0.8305,1.0,1.0,0.0,0.0078,0.0,0.0,0.0,0.3945,1.0,1.0,0.0,0.0157,0.0,0.0,0.0,0.0915,1.0,1.0,0.0,0.0223,0.0,0.0,0.0,0.0154,1.0,1.0,0.0,0.0356,0.0,0.0,0.0,0.0044,1.0,1.0,0.0,0.0921,0.0,0.0,0.0,0.0019,1.0,1.0,0.0,0.35,0.0,0.0,0.0,0.0011
TSEVO,LSTMFCN,72,1,0,135.811,0.8854,0.8,0.4205,4.5016,1.3722,0.5003,1.0,0.9532,0.0,0.0107,1.0,0.5003,1.0,0.9972,1.0,0.9704,0.0,0.0014,0.0,0.0539,1.0,0.9727,1.0,0.9992,0.0,0.0002,1.0,0.6508,1.0,0.7253,1.0,0.9995,0.0,0.0,0.0,0.0264,0.0,0.0886,1.0,1.0,0.0,0.0,0.0,0.0004,0.0,0.0049,1.0,1.0,0.0,0.0,0.0,0.0,0.0,0.0003,1.0,1.0,0.0,0.0,0.0,0.0,0.0,0.0,1.0,1.0,0.0,0.0,0.0,0.0,0.0,0.0,1.0,1.0,0.0,0.0,0.0,0.0,0.0,0.0,1.0,1.0,0.0,0.0,0.0,0.0,0.0,0.0,1.0,1.0,0.0,0.0,0.0,0.0,0.0,0.0
TSEVO,LSTMFCN,5,1,0,139.4371,0.3125,0.3,1.9521,46.3899,7.4141,0.5002,1.0,0.9967,0.0,0.0033,1.0,0.5002,1.0,1.0,1.0,0.9976,0.0,0.0019,0.0,0.2658,1.0,0.9999,1.0,0.9997,0.0,0.0014,1.0,0.7251,1.0,0.9998,1.0,0.9999,0.0,0.0011,0.0,0.0086,1.0,0.999,1.0,1.0,0.0,0.001,0.0,0.0007,1.0,0.971,1.0,1.0,0.0,0.0008,0.0,0.0,0.0,0.4577,1.0,1.0,0.0,0.0004,0.0,0.0,0.0,0.077,1.0,1.0,0.0,0.0002,0.0,0.0,0.0,0.0224,1.0,1.0,0.0,0.0002,0.0,0.0,0.0,0.0065,1.0,1.0,0.0,0.0003,0.0,0.0,0.0,0.0018,1.0,1.0,0.0,0.001,0.0,0.0,0.0,0.0005
TSEVO,LSTMFCN,40,1,0,135.7394,0.8438,0.6,1.9036,12.1156,4.5003,0.5,1.0,0.9996,0.0,0.0192,1.0,0.5,1.0,0.997,1.0,0.9996,0.0,0.009,1.0,0.6128,1.0,0.9944,1.0,0.9998,0.0,0.0071,0.0,0.12,1.0,0.9677,1.0,1.0,0.0,0.0068,0.0,0.0013,1.0,0.7891,1.0,1.0,0.0,0.0133,0.0,0.0,0.0,0.3828,1.0,1.0,0.0,0.0435,0.0,0.0001,0.0,0.1206,1.0,1.0,0.0,0.1262,0.0,0.0,0.0,0.0438,1.0,1.0,0.0,0.2445,0.0,0.0,0.0,0.0121,1.0,1.0,0.0,0.4524,0.0,0.0,0.0,0.0034,1.0,1.0,1.0,0.7675,0.0,0.0,0.0,0.0012,1.0,1.0,1.0,0.9457,0.0,0.0,0.0,0.0004
TSEVO,LSTMFCN,11,1,0,136.5982,0.7812,0.6,0.8881,7.7941,2.2379,0.5001,1.0,0.9605,0.0,0.0009,1.0,0.5001,1.0,0.9998,1.0,0.9848,0.0,0.0004,1.0,0.6893,1.0,0.9984,1.0,0.9911,0.0,0.0004,0.0,0.0312,1.0,0.9855,1.0,0.9999,0.0,0.0004,0.0,0.0002,1.0,0.638,1.0,1.0,0.0,0.0007,0.0,0.0,0.0,0.0388,1.0,1.0,0.0,0.0013,0.0,0.0,0.0,0.0031,1.0,1.0,0.0,0.0028,0.0,0.0,0.0,0.0004,1.0,1.0,0.0,0.0067,0.0,0.0,0.0,0.0001,1.0,1.0,0.0,0.0183,0.0,0.0,0.0,0.0,1.0,1.0,0.0,0.0374,0.0,0.0,0.0,0.0,1.0,1.0,0.0,0.0916,0.0,0.0,0.0,0.0
TSEVO,LSTMFCN,29,1,0,137.0913,0.6042,0.5,1.5107,16.6452,3.287,0.5001,1.0,0.9992,0.0,0.0058,1.0,0.5001,1.0,0.9999,1.0,0.9992,0.0,0.0036,0.0,0.4995,1.0,0.9993,1.0,0.9999,0.0,0.0029,0.0,0.0179,1.0,0.9925,1.0,1.0,0.0,0.0023,0.0,0.0001,1.0,0.7896,1.0,1.0,0.0,0.0024,0.0,0.0,0.0,0.0604,1.0,1.0,0.0,0.0018,0.0,0.0,0.0,0.0016,1.0,1.0,0.0,0.0009,0.0,0.0,0.0,0.0001,1.0,1.0,0.0,0.0004,0.0,0.0,0.0,0.0,1.0,1.0,0.0,0.0003,0.0,0.0,0.0,0.0,1.0,1.0,0.0,0.0003,0.0,0.0,0.0,0.0,1.0,1.0,0.0,0.0005,0.0,0.0,0.0,0.0
TSEVO,LSTMFCN,83,1,0,133.0749,0.8125,0.5,2.3245,12.7101,3.8897,0.5,1.0,0.9998,0.0,0.0095,1.0,0.5,1.0,0.9959,1.0,0.9997,0.0,0.0037,0.0,0.4004,1.0,0.9899,1.0,0.9999,0.0,0.002,0.0,0.0705,1.0,0.9284,1.0,1.0,0.0,0.0016,0.0,0.0007,0.0,0.4782,1.0,1.0,0.0,0.0014,0.0,0.0,0.0,0.0944,1.0,1.0,0.0,0.0011,0.0,0.0,0.0,0.0302,1.0,1.0,0.0,0.0009,0.0,0.0,0.0,0.0116,1.0,1.0,0.0,0.0008,0.0,0.0,0.0,0.0043,1.0,1.0,0.0,0.0013,0.0,0.0,0.0,0.0012,1.0,1.0,0.0,0.0037,0.0,0.0,0.0,0.0003,1.0,1.0,0.0,0.0089,0.0,0.0,0.0,0.0001
TSEVO,LSTMFCN,82,1,0,135.2684,0.8958,0.7,2.196,8.8905,3.7781,0.5,1.0,0.8034,0.0,0.0014,1.0,0.5,1.0,0.9978,1.0,0.8976,0.0,0.0004,0.0,0.2989,1.0,0.9877,1.0,0.9803,0.0,0.0001,0.0,0.1534,1.0,0.5685,1.0,0.9999,0.0,0.0001,0.0,0.0011,0.0,0.0061,1.0,1.0,0.0,0.0002,0.0,0.0,0.0,0.0002,1.0,1.0,0.0,0.0002,0.0,0.0,0.0,0.0,1.0,1.0,0.0,0.0005,0.0,0.0,0.0,0.0,1.0,1.0,0.0,0.0005,0.0,0.0,0.0,0.0,1.0,1.0,0.0,0.0005,0.0,0.0,0.0,0.0,1.0,1.0,0.0,0.0005,0.0,0.0,0.0,0.0,1.0,1.0,0.0,0.0006,0.0,0.0,0.0,0.0
TSEVO,LSTMFCN,43,1,0,136.1889,0.6354,0.4,1.9594,20.0639,5.128,0.5,1.0,0.999,0.0,0.02,1.0,0.5,1.0,0.9985,1.0,0.9985,0.0,0.0027,0.0,0.3729,1.0,0.9341,1.0,0.9999,0.0,0.0014,0.0,0.0071,0.0,0.0684,1.0,1.0,0.0,0.001,0.0,0.005,0.0,0.0006,1.0,1.0,0.0,0.0006,0.0,0.0001,0.0,0.0,1.0,1.0,0.0,0.0003,0.0,0.0,0.0,0.0,1.0,1.0,0.0,0.0002,0.0,0.0,0.0,0.0,1.0,1.0,0.0,0.0002,0.0,0.0,0.0,0.0,1.0,1.0,0.0,0.0003,0.0,0.0,0.0,0.0,1.0,1.0,0.0,0.0006,0.0,0.0,0.0,0.0,1.0,1.0,0.0,0.002,0.0,0.0,0.0,0.0
TSEVO,LSTMFCN,28,0,1,147.0506,0.8333,0.5,2.1338,5.7941,2.4963,0.5001,1.0,0.9936,1.0,0.9998,1.0,0.5001,0.0,0.0032,1.0,0.9919,1.0,0.9997,0.0,0.4491,0.0,0.0018,1.0,0.9702,1.0,0.9996,1.0,0.7622,0.0,0.0014,0.0,0.0826,1.0,0.9994,1.0,1.0,0.0,0.0012,0.0,0.0943,1.0,0.9992,1.0,1.0,0.0,0.0003,0.0,0.0001,1.0,0.9987,1.0,1.0,0.0,0.0002,0.0,0.0,1.0,0.9981,1.0,1.0,0.0,0.0003,0.0,0.0,1.0,0.996,1.0,1.0,0.0,0.0003,0.0,0.0,1.0,0.99,1.0,1.0,0.0,0.0004,0.0,0.0,1.0,0.9604,1.0,1.0,0.0,0.0011,0.0,0.0,1.0,0.8273,1.0,1.0,0.0,0.0042
TSEVO,LSTMFCN,22,1,0,133.0046,0.25,0.2,1.4131,44.0627,7.425,0.5001,1.0,0.9669,0.0,0.0032,1.0,0.5001,1.0,0.9999,1.0,0.983,0.0,0.0017,1.0,0.5827,1.0,0.9999,1.0,0.9922,0.0,0.0017,0.0,0.205,1.0,0.9997,1.0,1.0,0.0,0.0042,0.0,0.388,1.0,0.9996,1.0,1.0,0.0,0.0217,0.0,0.0,1.0,0.9992,1.0,1.0,0.0,0.1358,0.0,0.0,1.0,0.9973,1.0,1.0,0.0,0.4177,0.0,0.0,1.0,0.9908,1.0,1.0,1.0,0.7428,0.0,0.0,1.0,0.9546,1.0,1.0,1.0,0.88,0.0,0.0,1.0,0.8214,1.0,1.0,1.0,0.9431,0.0,0.0,1.0,0.5396,1.0,1.0,1.0,0.9853,0.0,0.0,0.0,0.2563
TSEVO,LSTMFCN,23,1,0,133.475,0.6042,0.3,3.309,18.694,4.2963,0.5,1.0,0.9997,0.0,0.012,1.0,0.5,1.0,0.9975,1.0,0.9999,0.0,0.0055,1.0,0.5938,1.0,0.9855,1.0,1.0,0.0,0.0033,0.0,0.0087,1.0,0.5878,1.0,1.0,0.0,0.0029,0.0,0.0007,0.0,0.0356,1.0,1.0,0.0,0.0048,0.0,0.0003,0.0,0.0021,1.0,1.0,0.0,0.0239,0.0,0.0,0.0,0.0002,1.0,1.0,0.0,0.0789,0.0,0.0,0.0,0.0,1.0,1.0,0.0,0.1837,0.0,0.0,0.0,0.0,1.0,1.0,0.0,0.347,0.0,0.0,0.0,0.0,1.0,1.0,1.0,0.5524,0.0,0.0,0.0,0.0,1.0,1.0,1.0,0.869,0.0,0.0,0.0,0.0
TSEVO,LSTMFCN,90,1,0,140.2629,0.7396,0.4,2.1626,15.4805,4.3497,0.5016,1.0,0.9646,0.0,0.024,1.0,0.5016,1.0,0.993,1.0,0.975,0.0,0.0023,0.0,0.3679,1.0,0.9847,1.0,1.0,0.0,0.0004,0.0,0.0041,1.0,0.9191,1.0,1.0,0.0,0.0002,0.0,0.0,0.0,0.2033,1.0,1.0,0.0,0.0002,0.0,0.0,0.0,0.0081,1.0,1.0,0.0,0.0003,0.0,0.0,0.0,0.0007,1.0,1.0,0.0,0.0004,0.0,0.0,0.0,0.0002,1.0,1.0,0.0,0.0006,0.0,0.0,0.0,0.0,1.0,1.0,0.0,0.0011,0.0,0.0,0.0,0.0,1.0,1.0,0.0,0.0024,0.0,0.0,0.0,0.0,1.0,1.0,0.0,0.0045,0.0,0.0,0.0,0.0
TSEVO,LSTMFCN,86,0,1,150.3494,0.8542,0.7,1.9205,5.2083,3.2244,0.5,1.0,0.8075,1.0,0.9975,1.0,0.5,0.0,0.002,1.0,0.789,1.0,0.9954,1.0,0.5815,0.0,0.0008,1.0,0.5781,1.0,0.991,1.0,0.986,0.0,0.0003,0.0,0.0136,1.0,0.956,1.0,0.979,0.0,0.0001,0.0,0.0001,1.0,0.7327,1.0,0.9994,0.0,0.0001,0.0,0.0001,0.0,0.4263,1.0,1.0,0.0,0.0001,0.0,0.0,0.0,0.2311,1.0,1.0,0.0,0.0001,0.0,0.0,0.0,0.0874,1.0,1.0,0.0,0.0001,0.0,0.0,0.0,0.0188,1.0,1.0,0.0,0.0002,0.0,0.0,0.0,0.0027,1.0,1.0,0.0,0.0002,0.0,0.0,0.0,0.0004,1.0,1.0,0.0,0.0003
TSEVO,LSTMFCN,20,0,1,147.5946,0.8333,0.7,1.5762,7.3991,2.1566,0.5002,1.0,0.9986,1.0,0.9993,1.0,0.5002,0.0,0.0457,1.0,0.9974,1.0,0.9741,0.0,0.4988,0.0,0.0018,0.0,0.3301,0.0,0.3885,1.0,0.9965,0.0,0.001,0.0,0.0,0.0,0.0142,1.0,1.0,0.0,0.0012,0.0,0.0,0.0,0.0006,1.0,1.0,0.0,0.0019,0.0,0.0,0.0,0.0001,1.0,1.0,0.0,0.007,0.0,0.0,0.0,0.0,1.0,1.0,0.0,0.105,0.0,0.0,0.0,0.0,1.0,1.0,1.0,0.7475,0.0,0.0,0.0,0.0,1.0,1.0,1.0,0.9473,0.0,0.0,0.0,0.0,1.0,1.0,1.0,0.9557,0.0,0.0,0.0,0.0,1.0,1.0,1.0,0.9595
TSEVO,LSTMFCN,32,0,1,145.1413,0.9479,0.9,1.127,2.0127,1.337,0.5,1.0,0.6889,1.0,0.9999,1.0,0.5,0.0,0.0001,1.0,0.6291,1.0,0.9997,1.0,0.5193,0.0,0.0,1.0,0.944,1.0,0.9985,0.0,0.4636,0.0,0.0,0.0,0.0107,1.0,0.965,1.0,0.9189,0.0,0.0,0.0,0.0034,0.0,0.3575,1.0,0.9936,0.0,0.0,0.0,0.0,0.0,0.0475,1.0,1.0,0.0,0.0,0.0,0.0,0.0,0.013,1.0,1.0,0.0,0.0001,0.0,0.0,0.0,0.0046,1.0,1.0,0.0,0.0005,0.0,0.0,0.0,0.002,1.0,1.0,0.0,0.0079,0.0,0.0,0.0,0.0009,1.0,1.0,0.0,0.1492,0.0,0.0,0.0,0.0004,1.0,1.0,1.0,0.8225
TSEVO,LSTMFCN,6,1,0,139.4247,0.8854,0.6,0.7855,3.4451,1.2429,0.5,1.0,0.6882,0.0,0.0001,1.0,0.5,1.0,0.9999,1.0,0.6523,0.0,0.0001,1.0,0.5595,1.0,0.9998,1.0,0.8436,0.0,0.0001,1.0,0.5955,1.0,0.9998,1.0,0.7867,0.0,0.0001,0.0,0.0709,1.0,0.9993,1.0,0.9997,0.0,0.0001,0.0,0.0008,1.0,0.9926,1.0,1.0,0.0,0.0002,0.0,0.0002,1.0,0.9018,1.0,1.0,0.0,0.0003,0.0,0.0,1.0,0.5123,1.0,1.0,0.0,0.0005,0.0,0.0,0.0,0.1791,1.0,1.0,0.0,0.0007,0.0,0.0,0.0,0.0514,1.0,1.0,0.0,0.002,0.0,0.0,0.0,0.0186,1.0,1.0,0.0,0.0068,0.0,0.0,0.0,0.0058
TSEVO,LSTMFCN,3,1,0,135.2275,0.7292,0.6,1.3675,12.6252,3.7196,0.5,1.0,0.9954,0.0,0.0218,1.0,0.5,1.0,0.9913,1.0,0.9956,0.0,0.0094,1.0,0.6285,1.0,0.8947,1.0,0.9999,0.0,0.0074,0.0,0.2633,0.0,0.0484,1.0,1.0,0.0,0.0882,0.0,0.0008,0.0,0.0002,1.0,0.9996,1.0,0.9055,0.0,0.0001,0.0,0.0,1.0,1.0,1.0,0.9982,0.0,0.0,0.0,0.0,1.0,1.0,1.0,0.9999,0.0,0.0,0.0,0.0,1.0,1.0,1.0,1.0,0.0,0.0,0.0,0.0,1.0,1.0,1.0,1.0,0.0,0.0,0.0,0.0,1.0,1.0,1.0,1.0,0.0,0.0,0.0,0.0,1.0,1.0,1.0,1.0,0.0,0.0,0.0,0.0
TSEVO,LSTMFCN,12,0,1,142.2167,0.7812,0.6,2.0209,9.814,2.7064,0.5,1.0,0.8863,1.0,0.9943,1.0,0.5,0.0,0.0019,1.0,0.7864,1.0,0.9572,1.0,0.7379,0.0,0.0009,0.0,0.2162,1.0,0.7596,1.0,0.8749,0.0,0.0008,0.0,0.0434,0.0,0.408,1.0,0.975,0.0,0.0011,0.0,0.0063,0.0,0.116,1.0,0.9998,0.0,0.0024,0.0,0.0,0.0,0.0207,1.0,1.0,0.0,0.0121,0.0,0.0,0.0,0.0033,1.0,1.0,0.0,0.0868,0.0,0.0,0.0,0.0007,1.0,1.0,0.0,0.3037,0.0,0.0,0.0,0.0002,1.0,1.0,1.0,0.7516,0.0,0.0,0.0,0.0,1.0,1.0,1.0,0.9409,0.0,0.0,0.0,0.0,1.0,1.0,1.0,0.9906
TSEVO,LSTMFCN,51,0,1,147.2049,0.7396,0.6,1.2578,15.6667,3.4352,0.5005,1.0,0.9999,1.0,1.0,1.0,0.5005,0.0,0.0083,1.0,0.9999,1.0,0.9998,1.0,0.5113,0.0,0.0026,1.0,0.9852,1.0,0.9969,1.0,0.9996,0.0,0.0021,1.0,0.8511,1.0,0.9236,1.0,0.9981,0.0,0.0038,0.0,0.0,0.0,0.0609,1.0,1.0,0.0,0.0073,0.0,0.0,0.0,0.0004,1.0,1.0,0.0,0.0078,0.0,0.0,0.0,0.0,1.0,1.0,0.0,0.0083,0.0,0.0,0.0,0.0,1.0,1.0,0.0,0.0095,0.0,0.0,0.0,0.0,1.0,1.0,0.0,0.021,0.0,0.0,0.0,0.0,1.0,1.0,0.0,0.046,0.0,0.0,0.0,0.0,1.0,1.0,0.0,0.0709
TSEVO,LSTMFCN,84,0,1,150.2768,0.8021,0.6,3.0664,28.7556,7.3169,0.5,1.0,0.9981,1.0,1.0,1.0,0.5,0.0,0.0029,1.0,0.9978,1.0,1.0,0.0,0.2729,0.0,0.0006,1.0,0.999,1.0,0.9999,1.0,0.967,0.0,0.0002,1.0,0.5421,1.0,0.9992,1.0,0.8243,0.0,0.0002,0.0,0.0006,1.0,0.965,1.0,1.0,0.0,0.0002,0.0,0.0001,1.0,0.5107,1.0,1.0,0.0,0.0004,0.0,0.0,0.0,0.1101,1.0,1.0,0.0,0.0012,0.0,0.0,0.0,0.0272,1.0,1.0,0.0,0.0078,0.0,0.0,0.0,0.009,1.0,1.0,0.0,0.0811,0.0,0.0,0.0,0.0048,1.0,1.0,0.0,0.3615,0.0,0.0,0.0,0.0035,1.0,1.0,1.0,0.7141
TSEVO,LSTMFCN,73,1,0,143.9663,0.9167,0.5,1.3629,4.7057,2.2679,0.5,1.0,0.9698,0.0,0.0013,1.0,0.5,1.0,0.999,1.0,0.9747,0.0,0.0002,0.0,0.3866,1.0,0.9921,1.0,0.9979,0.0,0.0,0.0,0.2491,1.0,0.9683,1.0,0.9978,0.0,0.0,0.0,0.0006,1.0,0.7384,1.0,1.0,0.0,0.0,0.0,0.0,0.0,0.1301,1.0,1.0,0.0,0.0001,0.0,0.0,0.0,0.014,1.0,1.0,0.0,0.0001,0.0,0.0,0.0,0.0031,1.0,1.0,0.0,0.0003,0.0,0.0,0.0,0.0009,1.0,1.0,0.0,0.0005,0.0,0.0,0.0,0.0003,1.0,1.0,0.0,0.0012,0.0,0.0,0.0,0.0001,1.0,1.0,0.0,0.0037,0.0,0.0,0.0,0.0
TSEVO,LSTMFCN,64,0,1,154.3608,0.6771,0.6,1.9422,14.0572,2.7448,0.5001,1.0,0.5985,1.0,1.0,1.0,0.5001,0.0,0.0001,1.0,0.5504,1.0,0.9999,1.0,0.5985,0.0,0.0,1.0,0.618,1.0,0.9987,1.0,0.6193,0.0,0.0,0.0,0.378,1.0,0.9875,1.0,0.75,0.0,0.0,0.0,0.0027,1.0,0.8937,1.0,0.9996,0.0,0.0,0.0,0.0,0.0,0.4909,1.0,1.0,0.0,0.0,0.0,0.0,0.0,0.1438,1.0,1.0,0.0,0.0,0.0,0.0,0.0,0.0585,1.0,1.0,0.0,0.0,0.0,0.0,0.0,0.0292,1.0,1.0,0.0,0.0002,0.0,0.0,0.0,0.0109,1.0,1.0,0.0,0.001,0.0,0.0,0.0,0.0052,1.0,1.0,0.0,0.0067
TSEVO,LSTMFCN,68,1,0,138.6139,0.5938,0.4,3.4245,27.217,5.535,0.5,1.0,0.9999,0.0,0.0099,1.0,0.5,1.0,0.9982,1.0,0.9999,0.0,0.0027,1.0,0.6747,1.0,0.9922,1.0,0.9999,0.0,0.0014,0.0,0.0293,1.0,0.985,1.0,1.0,0.0,0.0015,1.0,0.5249,1.0,0.9541,1.0,1.0,0.0,0.0025,0.0,0.0,1.0,0.8094,1.0,1.0,0.0,0.0067,0.0,0.0,1.0,0.5009,1.0,1.0,0.0,0.0434,0.0,0.0,0.0,0.3069,1.0,1.0,0.0,0.2014,0.0,0.0,0.0,0.2159,1.0,1.0,1.0,0.5735,0.0,0.0,0.0,0.2099,1.0,1.0,1.0,0.9048,0.0,0.0,0.0,0.1967,1.0,1.0,1.0,0.9864,0.0,0.0,0.0,0.1212
TSEVO,LSTMFCN,75,0,1,156.1939,0.8958,0.8,1.24,3.7828,1.459,0.5,1.0,0.853,1.0,0.9985,1.0,0.5,0.0,0.0056,1.0,0.6289,1.0,0.9856,1.0,0.5823,0.0,0.0002,0.0,0.2379,1.0,0.9219,1.0,0.9974,0.0,0.0,0.0,0.0038,0.0,0.4207,1.0,1.0,0.0,0.0,0.0,0.0001,0.0,0.0257,1.0,0.9999,0.0,0.0,0.0,0.0,0.0,0.002,1.0,1.0,0.0,0.0,0.0,0.0,0.0,0.0004,1.0,1.0,0.0,0.0,0.0,0.0,0.0,0.0002,1.0,1.0,0.0,0.0,0.0,0.0,0.0,0.0001,1.0,1.0,0.0,0.0,0.0,0.0,0.0,0.0001,1.0,1.0,0.0,0.0,0.0,0.0,0.0,0.0001,1.0,1.0,0.0,0.0
TSEVO,LSTMFCN,74,1,0,145.6789,0.4896,0.4,2.914,34.2301,6.8667,0.5009,1.0,0.9973,0.0,0.007,1.0,0.5009,1.0,1.0,1.0,0.9993,0.0,0.0021,0.0,0.3042,1.0,0.9999,1.0,0.9971,0.0,0.0015,0.0,0.1145,1.0,0.9995,1.0,0.9999,0.0,0.0019,0.0,0.0001,1.0,0.9981,1.0,1.0,0.0,0.003,0.0,0.0124,1.0,0.9575,1.0,1.0,0.0,0.0026,0.0,0.0,0.0,0.1282,1.0,1.0,0.0,0.0013,0.0,0.0,0.0,0.0023,1.0,1.0,0.0,0.0007,0.0,0.0,0.0,0.0003,1.0,1.0,0.0,0.0007,0.0,0.0,0.0,0.0001,1.0,1.0,0.0,0.0008,0.0,0.0,0.0,0.0,1.0,1.0,0.0,0.0013,0.0,0.0,0.0,0.0
TSEVO,LSTMFCN,57,0,1,156.1869,0.9062,0.8,2.1756,6.326,2.6675,0.5002,1.0,0.9694,1.0,1.0,1.0,0.5002,0.0,0.0004,1.0,0.9843,1.0,1.0,1.0,0.5981,0.0,0.0001,1.0,0.9337,1.0,0.9998,1.0,0.8028,0.0,0.0001,1.0,0.7331,1.0,0.9972,1.0,0.9984,0.0,0.0,0.0,0.0006,1.0,0.9458,1.0,0.9999,0.0,0.0,0.0,0.0105,1.0,0.5657,1.0,1.0,0.0,0.0,0.0,0.0,0.0,0.137,1.0,1.0,0.0,0.0,0.0,0.0,0.0,0.0324,1.0,1.0,0.0,0.0001,0.0,0.0,0.0,0.0129,1.0,1.0,0.0,0.0002,0.0,0.0,0.0,0.0064,1.0,1.0,0.0,0.0011,0.0,0.0,0.0,0.0037,1.0,1.0,0.0,0.0038
TSEVO,LSTMFCN,42,0,1,154.9695,0.9271,0.6,0.518,1.1647,0.6186,0.5,1.0,0.7312,1.0,0.992,1.0,0.5,0.0,0.0092,1.0,0.6567,1.0,0.9742,1.0,0.6547,0.0,0.0043,0.0,0.2533,1.0,0.7092,1.0,0.5194,0.0,0.0023,0.0,0.0002,0.0,0.0638,1.0,0.9906,0.0,0.0011,0.0,0.0005,0.0,0.0042,1.0,0.999,0.0,0.0004,0.0,0.0,0.0,0.0008,1.0,1.0,0.0,0.0001,0.0,0.0,0.0,0.0003,1.0,1.0,0.0,0.0001,0.0,0.0,0.0,0.0002,1.0,1.0,0.0,0.0001,0.0,0.0,0.0,0.0001,1.0,1.0,0.0,0.0001,0.0,0.0,0.0,0.0001,1.0,1.0,0.0,0.0001,0.0,0.0,0.0,0.0001,1.0,1.0,0.0,0.0001
TSEVO,LSTMFCN,76,1,0,133.9939,0.0833,0.0,4.3499,62.6392,9.3763,0.5,1.0,0.9864,0.0,0.0147,1.0,0.5,1.0,0.9987,1.0,0.993,0.0,0.0027,0.0,0.462,1.0,0.9869,1.0,0.9997,0.0,0.0005,0.0,0.082,0.0,0.3759,1.0,1.0,0.0,0.0002,0.0,0.004,0.0,0.0013,1.0,0.9999,0.0,0.0001,0.0,0.0003,0.0,0.0,1.0,1.0,0.0,0.0,0.0,0.0,0.0,0.0,1.0,1.0,0.0,0.0,0.0,0.0,0.0,0.0,1.0,1.0,0.0,0.0,0.0,0.0,0.0,0.0,1.0,1.0,0.0,0.0,0.0,0.0,0.0,0.0,1.0,1.0,0.0,0.0,0.0,0.0,0.0,0.0,1.0,1.0,0.0,0.0001,0.0,0.0,0.0,0.0
TSEVO,LSTMFCN,99,1,0,144.7984,0.8021,0.8,2.7866,11.4971,3.4876,0.5001,1.0,0.9708,0.0,0.0004,1.0,0.5001,1.0,0.9998,1.0,0.9534,0.0,0.0001,0.0,0.3983,1.0,0.9996,1.0,0.9661,0.0,0.0,0.0,0.0697,1.0,0.9991,1.0,0.9999,0.0,0.0,0.0,0.012,1.0,0.9943,1.0,0.9998,0.0,0.0,0.0,0.0001,1.0,0.8872,1.0,1.0,0.0,0.0,0.0,0.0,0.0,0.1723,1.0,1.0,0.0,0.0,0.0,0.0,0.0,0.0093,1.0,1.0,0.0,0.0001,0.0,0.0,0.0,0.0013,1.0,1.0,0.0,0.0002,0.0,0.0,0.0,0.0003,1.0,1.0,0.0,0.0006,0.0,0.0,0.0,0.0001,1.0,1.0,0.0,0.0027,0.0,0.0,0.0,0.0
TSEVO,LSTMFCN,17,1,0,142.7785,0.8958,0.5,1.5653,7.779,3.4469,0.5,1.0,0.9456,0.0,0.0026,1.0,0.5,1.0,0.9971,1.0,0.9603,0.0,0.0017,0.0,0.4381,1.0,0.9883,1.0,0.9845,0.0,0.0033,0.0,0.0816,1.0,0.7408,1.0,0.9988,0.0,0.0319,0.0,0.0323,0.0,0.0135,1.0,1.0,1.0,0.5034,0.0,0.0002,0.0,0.0001,1.0,1.0,1.0,0.9476,0.0,0.0,0.0,0.0,1.0,1.0,1.0,0.9846,0.0,0.0,0.0,0.0,1.0,1.0,1.0,0.9909,0.0,0.0,0.0,0.0,1.0,1.0,1.0,0.9941,0.0,0.0,0.0,0.0,1.0,1.0,1.0,0.9939,0.0,0.0,0.0,0.0,1.0,1.0,1.0,0.9954,0.0,0.0,0.0,0.0
TSEVO,LSTMFCN,93,1,0,142.6223,0.4375,0.2,2.6543,37.424,7.6904,0.5001,1.0,0.9999,0.0,0.0038,1.0,0.5001,1.0,1.0,1.0,0.9999,0.0,0.0016,0.0,0.2315,1.0,1.0,1.0,1.0,0.0,0.0011,0.0,0.0294,1.0,0.9998,1.0,1.0,0.0,0.0012,0.0,0.0016,1.0,0.9983,1.0,1.0,0.0,0.0018,0.0,0.0003,1.0,0.9946,1.0,1.0,0.0,0.0027,0.0,0.0,1.0,0.9574,1.0,1.0,0.0,0.0031,0.0,0.0,0.0,0.3811,1.0,1.0,0.0,0.0035,0.0,0.0,0.0,0.0156,1.0,1.0,0.0,0.0056,0.0,0.0,0.0,0.0016,1.0,1.0,0.0,0.0164,0.0,0.0,0.0,0.0005,1.0,1.0,0.0,0.0666,0.0,0.0,0.0,0.0003
TSEVO,LSTMFCN,63,0,1,151.7483,0.8542,0.6,0.6457,2.4427,0.8837,0.5,1.0,0.7267,1.0,1.0,1.0,0.5,0.0,0.0001,1.0,0.7807,1.0,0.9998,0.0,0.4017,0.0,0.0,0.0,0.032,1.0,0.9994,1.0,0.9512,0.0,0.0,0.0,0.0263,1.0,0.9978,1.0,0.9998,0.0,0.0,0.0,0.001,1.0,0.9843,1.0,1.0,0.0,0.0,0.0,0.0,1.0,0.8727,1.0,1.0,0.0,0.0,0.0,0.0,1.0,0.5249,1.0,1.0,0.0,0.0001,0.0,0.0,0.0,0.1481,1.0,1.0,0.0,0.0001,0.0,0.0,0.0,0.0349,1.0,1.0,0.0,0.0005,0.0,0.0,0.0,0.0102,1.0,1.0,0.0,0.002,0.0,0.0,0.0,0.0023,1.0,1.0,0.0,0.0081
TSEVO,LSTMFCN,0,1,0,137.6446,0.8438,0.7,5.784,22.9252,7.5003,0.5,1.0,0.9998,0.0,0.0368,1.0,0.5,1.0,0.9989,1.0,0.9999,0.0,0.0134,1.0,0.5585,1.0,0.9977,1.0,1.0,0.0,0.0092,0.0,0.0601,1.0,0.9945,1.0,1.0,0.0,0.006,0.0,0.0014,1.0,0.9673,1.0,1.0,0.0,0.0039,0.0,0.0,1.0,0.8363,1.0,1.0,0.0,0.003,0.0,0.0001,0.0,0.4552,1.0,1.0,0.0,0.0029,0.0,0.0,0.0,0.1175,1.0,1.0,0.0,0.0035,0.0,0.0,0.0,0.0237,1.0,1.0,0.0,0.0044,0.0,0.0,0.0,0.0068,1.0,1.0,0.0,0.0061,0.0,0.0,0.0,0.0031,1.0,1.0,0.0,0.0113,0.0,0.0,0.0,0.0019
TSEVO,LSTMFCN,18,0,1,148.7403,0.9375,0.9,0.272,0.7351,0.3491,0.5,1.0,0.5708,1.0,0.9924,1.0,0.5,0.0,0.0088,0.0,0.3715,1.0,0.9139,1.0,0.5161,0.0,0.0049,0.0,0.2346,0.0,0.2286,1.0,0.6908,0.0,0.0059,0.0,0.0016,0.0,0.0109,1.0,0.9997,0.0,0.0028,0.0,0.0,0.0,0.0016,1.0,1.0,0.0,0.0005,0.0,0.0,0.0,0.0006,1.0,1.0,0.0,0.0001,0.0,0.0,0.0,0.0003,1.0,1.0,0.0,0.0001,0.0,0.0,0.0,0.0002,1.0,1.0,0.0,0.0001,0.0,0.0,0.0,0.0002,1.0,1.0,0.0,0.0001,0.0,0.0,0.0,0.0002,1.0,1.0,0.0,0.0001,0.0,0.0,0.0,0.0002,1.0,1.0,0.0,0.0001
TSEVO,LSTMFCN,44,1,0,144.1887,0.8125,0.7,0.9135,7.6832,2.0067,0.5,1.0,0.985,0.0,0.0074,1.0,0.5,1.0,0.9995,1.0,0.9882,0.0,0.0044,0.0,0.1389,1.0,0.9981,1.0,0.9997,0.0,0.0033,0.0,0.0222,1.0,0.9938,1.0,1.0,0.0,0.0029,0.0,0.0002,1.0,0.9552,1.0,1.0,0.0,0.0031,0.0,0.0,1.0,0.6181,1.0,1.0,0.0,0.0043,0.0,0.0,0.0,0.0875,1.0,1.0,0.0,0.0038,0.0,0.0,0.0,0.0033,1.0,1.0,0.0,0.003,0.0,0.0,0.0,0.0002,1.0,1.0,0.0,0.0039,0.0,0.0,0.0,0.0,1.0,1.0,0.0,0.0112,0.0,0.0,0.0,0.0,1.0,1.0,0.0,0.0631,0.0,0.0,0.0,0.0
TSEVO,LSTMFCN,38,0,1,145.5854,0.8333,0.8,1.654,10.2316,3.1203,0.5,1.0,0.9943,1.0,0.9958,1.0,0.5,0.0,0.0257,1.0,0.998,1.0,0.7539,1.0,0.8827,0.0,0.0008,1.0,0.6021,0.0,0.0989,1.0,0.9754,0.0,0.0001,0.0,0.0003,0.0,0.0204,1.0,1.0,0.0,0.0,0.0,0.0,0.0,0.0049,1.0,1.0,0.0,0.0,0.0,0.0,0.0,0.001,1.0,1.0,0.0,0.0,0.0,0.0,0.0,0.0002,1.0,1.0,0.0,0.0,0.0,0.0,0.0,0.0001,1.0,1.0,0.0,0.0,0.0,0.0,0.0,0.0001,1.0,1.0,0.0,0.0,0.0,0.0,0.0,0.0001,1.0,1.0,0.0,0.0,0.0,0.0,0.0,0.0001,1.0,1.0,0.0,0.0
TSEVO,LSTMFCN,45,1,0,136.4325,0.5729,0.5,4.4588,44.7333,8.4465,0.5,1.0,0.9985,0.0,0.0051,1.0,0.5,1.0,0.998,1.0,0.9989,0.0,0.0021,0.0,0.177,1.0,0.9928,1.0,0.9982,0.0,0.0014,0.0,0.229,1.0,0.8771,1.0,1.0,0.0,0.0015,0.0,0.0,0.0,0.1367,1.0,1.0,0.0,0.0024,0.0,0.0,0.0,0.0083,1.0,1.0,0.0,0.004,0.0,0.0,0.0,0.0012,1.0,1.0,0.0,0.0039,0.0,0.0,0.0,0.0004,1.0,1.0,0.0,0.0031,0.0,0.0,0.0,0.0002,1.0,1.0,0.0,0.0038,0.0,0.0,0.0,0.0001,1.0,1.0,0.0,0.0091,0.0,0.0,0.0,0.0,1.0,1.0,0.0,0.0379,0.0,0.0,0.0,0.0
TSEVO,LSTMFCN,39,0,1,157.1413,0.8229,0.8,0.5793,3.9721,1.1868,0.5,1.0,0.8369,1.0,1.0,1.0,0.5,0.0,0.0001,1.0,0.8852,1.0,0.9999,1.0,0.6815,0.0,0.0001,1.0,0.5386,1.0,0.9994,0.0,0.1968,0.0,0.0001,0.0,0.306,1.0,0.9932,1.0,0.9999,0.0,0.0,0.0,0.0144,1.0,0.9249,1.0,1.0,0.0,0.0001,0.0,0.0,1.0,0.5433,1.0,1.0,0.0,0.0001,0.0,0.0,0.0,0.1808,1.0,1.0,0.0,0.0004,0.0,0.0,0.0,0.0639,1.0,1.0,0.0,0.0025,0.0,0.0,0.0,0.0256,1.0,1.0,0.0,0.0212,0.0,0.0,0.0,0.0114,1.0,1.0,0.0,0.2256,0.0,0.0,0.0,0.0063,1.0,1.0,1.0,0.8319
TSEVO,LSTMFCN,70,1,0,139.8726,0.6458,0.3,1.2705,10.2511,2.0705,0.5,1.0,0.999,0.0,0.0079,1.0,0.5,1.0,0.9999,1.0,0.9992,0.0,0.0015,0.0,0.1915,1.0,0.999,1.0,0.9999,0.0,0.0005,0.0,0.0035,1.0,0.9911,1.0,1.0,0.0,0.0005,0.0,0.0001,1.0,0.8706,1.0,1.0,0.0,0.0011,0.0,0.0,0.0,0.1127,1.0,1.0,0.0,0.0013,0.0,0.0,0.0,0.0018,1.0,1.0,0.0,0.0028,0.0,0.0,0.0,0.0001,1.0,1.0,0.0,0.0116,0.0,0.0,0.0,0.0,1.0,1.0,0.0,0.0413,0.0,0.0,0.0,0.0,1.0,1.0,0.0,0.2063,0.0,0.0,0.0,0.0,1.0,1.0,1.0,0.7217,0.0,0.0,0.0,0.0
TSEVO,LSTMFCN,94,1,0,141.2048,0.6875,0.7,2.5181,10.8252,3.0205,0.5001,1.0,0.6972,0.0,0.0001,1.0,0.5001,1.0,0.9999,1.0,0.6087,0.0,0.0001,0.0,0.4282,1.0,0.9998,1.0,0.9732,0.0,0.0001,0.0,0.287,1.0,0.9993,1.0,0.9793,0.0,0.0001,0.0,0.0039,1.0,0.9858,1.0,0.9998,0.0,0.0001,0.0,0.0017,1.0,0.7992,1.0,1.0,0.0,0.0001,0.0,0.0002,0.0,0.3578,1.0,1.0,0.0,0.0001,0.0,0.0,0.0,0.1083,1.0,1.0,0.0,0.0002,0.0,0.0,0.0,0.0416,1.0,1.0,0.0,0.0007,0.0,0.0,0.0,0.0169,1.0,1.0,0.0,0.006,0.0,0.0,0.0,0.006,1.0,1.0,0.0,0.0858,0.0,0.0,0.0,0.0017
TSEVO,LSTMFCN,30,1,0,138.6651,0.7917,0.6,1.6616,11.7609,2.9737,0.5,1.0,0.9962,0.0,0.0062,1.0,0.5,1.0,0.9953,1.0,0.9978,0.0,0.0028,0.0,0.4276,1.0,0.9554,1.0,0.9999,0.0,0.0022,0.0,0.1797,0.0,0.4687,1.0,0.9998,0.0,0.0033,0.0,0.0006,0.0,0.0292,1.0,1.0,0.0,0.0076,0.0,0.0005,0.0,0.0031,1.0,1.0,0.0,0.0141,0.0,0.0,0.0,0.0009,1.0,1.0,0.0,0.0168,0.0,0.0,0.0,0.0005,1.0,1.0,0.0,0.0289,0.0,0.0,0.0,0.0003,1.0,1.0,0.0,0.0793,0.0,0.0,0.0,0.0003,1.0,1.0,0.0,0.193,0.0,0.0,0.0,0.0002,1.0,1.0,0.0,0.4236,0.0,0.0,0.0,0.0001
TSEVO,LSTMFCN,71,1,0,136.9558,0.5208,0.2,1.6725,18.7278,3.5541,0.5,1.0,0.9992,0.0,0.0052,1.0,0.5,1.0,0.9999,1.0,0.9993,0.0,0.0041,0.0,0.4801,1.0,0.9995,1.0,1.0,0.0,0.0039,0.0,0.1702,1.0,0.9953,1.0,0.9999,0.0,0.0035,0.0,0.0425,1.0,0.8476,1.0,1.0,0.0,0.0047,0.0,0.0,0.0,0.0363,1.0,1.0,0.0,0.0133,0.0,0.0,0.0,0.0008,1.0,1.0,0.0,0.0344,0.0,0.0,0.0,0.0001,1.0,1.0,0.0,0.1325,0.0,0.0,0.0,0.0,1.0,1.0,0.0,0.2946,0.0,0.0,0.0,0.0,1.0,1.0,1.0,0.6252,0.0,0.0,0.0,0.0,1.0,1.0,1.0,0.9033,0.0,0.0,0.0,0.0
TSEVO,LSTMFCN,46,1,0,140.8389,0.6042,0.5,2.0863,16.1564,3.1325,0.5,1.0,0.998,0.0,0.0064,1.0,0.5,1.0,0.9999,1.0,0.9993,0.0,0.0036,0.0,0.347,1.0,0.9995,1.0,0.9999,0.0,0.0023,0.0,0.0749,1.0,0.9948,1.0,0.9996,0.0,0.0019,0.0,0.0,1.0,0.7407,1.0,1.0,0.0,0.0018,0.0,0.0,0.0,0.0131,1.0,1.0,0.0,0.0021,0.0,0.0,0.0,0.0002,1.0,1.0,0.0,0.0035,0.0,0.0,0.0,0.0,1.0,1.0,0.0,0.013,0.0,0.0,0.0,0.0,1.0,1.0,0.0,0.0459,0.0,0.0,0.0,0.0,1.0,1.0,0.0,0.1903,0.0,0.0,0.0,0.0,1.0,1.0,1.0,0.8019,0.0,0.0,0.0,0.0
TSEVO,LSTMFCN,56,1,0,139.9192,0.7396,0.6,2.4691,18.4694,4.6601,0.5001,1.0,0.9988,0.0,0.0367,1.0,0.5001,1.0,0.9969,1.0,0.9996,0.0,0.0101,0.0,0.4479,1.0,0.9907,1.0,1.0,0.0,0.0041,0.0,0.0188,1.0,0.9038,1.0,1.0,0.0,0.0023,0.0,0.009,0.0,0.329,1.0,1.0,0.0,0.002,0.0,0.0012,0.0,0.022,1.0,1.0,0.0,0.0015,0.0,0.0,0.0,0.002,1.0,1.0,0.0,0.0011,0.0,0.0,0.0,0.0003,1.0,1.0,0.0,0.0014,0.0,0.0,0.0,0.0001,1.0,1.0,0.0,0.0035,0.0,0.0,0.0,0.0001,1.0,1.0,0.0,0.0095,0.0,0.0,0.0,0.0,1.0,1.0,0.0,0.035,0.0,0.0,0.0,0.0
TSEVO,LSTMFCN,80,1,0,138.996,0.625,0.5,1.2732,11.0742,2.1587,0.5002,1.0,0.9976,0.0,0.0138,1.0,0.5002,1.0,0.9997,1.0,0.9969,0.0,0.0031,0.0,0.0849,1.0,0.9985,1.0,0.9978,0.0,0.0008,0.0,0.0255,1.0,0.9781,1.0,1.0,0.0,0.0004,0.0,0.0,0.0,0.4805,1.0,1.0,0.0,0.0002,0.0,0.0,0.0,0.0216,1.0,1.0,0.0,0.0001,0.0,0.0,0.0,0.0022,1.0,1.0,0.0,0.0,0.0,0.0,0.0,0.0005,1.0,1.0,0.0,0.0,0.0,0.0,0.0,0.0002,1.0,1.0,0.0,0.0,0.0,0.0,0.0,0.0001,1.0,1.0,0.0,0.0001,0.0,0.0,0.0,0.0,1.0,1.0,0.0,0.0001,0.0,0.0,0.0,0.0
TSEVO,LSTMFCN,91,0,1,150.9308,0.7708,0.5,2.7442,30.6845,7.9971,0.5002,1.0,0.9998,1.0,0.9999,1.0,0.5002,0.0,0.0002,1.0,0.9996,1.0,0.9964,1.0,0.7851,0.0,0.0,1.0,0.9061,1.0,0.8727,1.0,0.9962,0.0,0.0,0.0,0.0019,0.0,0.0478,1.0,0.9997,0.0,0.0,0.0,0.0,0.0,0.0014,1.0,1.0,0.0,0.0,0.0,0.0,0.0,0.0001,1.0,1.0,0.0,0.0001,0.0,0.0,0.0,0.0,1.0,1.0,0.0,0.0009,0.0,0.0,0.0,0.0,1.0,1.0,0.0,0.0461,0.0,0.0,0.0,0.0,1.0,1.0,1.0,0.5965,0.0,0.0,0.0,0.0,1.0,1.0,1.0,0.7948,0.0,0.0,0.0,0.0,1.0,1.0,1.0,0.871
TSEVO,LSTMFCN,88,1,0,142.8657,0.8542,0.8,2.4999,11.7223,4.2948,0.5003,1.0,0.9905,0.0,0.008,1.0,0.5003,1.0,0.9991,1.0,0.9826,0.0,0.0054,1.0,0.5365,1.0,0.996,1.0,0.9936,0.0,0.0077,0.0,0.1083,1.0,0.8728,1.0,1.0,0.0,0.0762,0.0,0.0009,0.0,0.0231,1.0,1.0,1.0,0.7081,0.0,0.001,0.0,0.0005,1.0,1.0,1.0,0.9719,0.0,0.0,0.0,0.0,1.0,1.0,1.0,0.994,0.0,0.0,0.0,0.0,1.0,1.0,1.0,0.9982,0.0,0.0,0.0,0.0,1.0,1.0,1.0,0.999,0.0,0.0,0.0,0.0,1.0,1.0,1.0,0.9995,0.0,0.0,0.0,0.0,1.0,1.0,1.0,0.9998,0.0,0.0,0.0,0.0
TSEVO,LSTMFCN,19,1,0,136.4507,0.7396,0.7,2.1977,10.566,3.6709,0.5,1.0,0.9579,0.0,0.0024,1.0,0.5,1.0,0.9973,1.0,0.9902,0.0,0.0011,0.0,0.248,1.0,0.9943,1.0,0.9967,0.0,0.0007,0.0,0.0378,1.0,0.9704,1.0,0.9999,0.0,0.0006,0.0,0.0002,1.0,0.6605,1.0,1.0,0.0,0.0005,0.0,0.0,0.0,0.0579,1.0,1.0,0.0,0.0003,0.0,0.0,0.0,0.0034,1.0,1.0,0.0,0.0002,0.0,0.0,0.0,0.0005,1.0,1.0,0.0,0.0003,0.0,0.0,0.0,0.0002,1.0,1.0,0.0,0.0004,0.0,0.0,0.0,0.0001,1.0,1.0,0.0,0.0008,0.0,0.0,0.0,0.0,1.0,1.0,0.0,0.0025,0.0,0.0,0.0,0.0
TSEVO,LSTMFCN,89,1,0,137.6103,0.625,0.6,2.3756,22.0244,4.1791,0.5,1.0,0.9993,0.0,0.0107,1.0,0.5,1.0,1.0,1.0,0.9998,0.0,0.0032,0.0,0.1261,1.0,0.9995,1.0,0.9998,0.0,0.0015,0.0,0.0007,1.0,0.9836,1.0,0.9999,0.0,0.0009,0.0,0.0137,0.0,0.2948,1.0,1.0,0.0,0.0009,0.0,0.0,0.0,0.0107,1.0,1.0,0.0,0.0007,0.0,0.0,0.0,0.0009,1.0,1.0,0.0,0.0005,0.0,0.0,0.0,0.0001,1.0,1.0,0.0,0.0005,0.0,0.0,0.0,0.0,1.0,1.0,0.0,0.0007,0.0,0.0,0.0,0.0,1.0,1.0,0.0,0.0012,0.0,0.0,0.0,0.0,1.0,1.0,0.0,0.0035,0.0,0.0,0.0,0.0
TSEVO,LSTMFCN,61,1,0,136.5113,0.7188,0.7,6.1573,42.3973,9.0786,0.5,1.0,0.9573,0.0,0.0039,1.0,0.5,1.0,0.9998,1.0,0.9362,0.0,0.0023,0.0,0.2042,1.0,0.9996,1.0,0.995,0.0,0.0015,0.0,0.2864,1.0,0.9994,1.0,0.9996,0.0,0.0011,0.0,0.0603,1.0,0.9988,1.0,0.9999,0.0,0.0007,0.0,0.0,1.0,0.9963,1.0,1.0,0.0,0.0004,0.0,0.0,1.0,0.9854,1.0,1.0,0.0,0.0001,0.0,0.0,1.0,0.9148,1.0,1.0,0.0,0.0,0.0,0.0,0.0,0.4708,1.0,1.0,0.0,0.0,0.0,0.0,0.0,0.0454,1.0,1.0,0.0,0.0001,0.0,0.0,0.0,0.0044,1.0,1.0,0.0,0.0002,0.0,0.0,0.0,0.0005
TSEVO,LSTMFCN,65,0,1,147.3587,0.7917,0.5,2.755,12.8072,3.2622,0.5,1.0,0.9409,1.0,1.0,1.0,0.5,0.0,0.0002,1.0,0.9325,1.0,0.9999,1.0,0.5634,0.0,0.0001,1.0,0.7374,1.0,0.9995,1.0,0.9591,0.0,0.0001,0.0,0.2096,1.0,0.9942,1.0,0.8636,0.0,0.0,0.0,0.0,1.0,0.843,1.0,1.0,0.0,0.0001,0.0,0.0,0.0,0.1079,1.0,1.0,0.0,0.0001,0.0,0.0,0.0,0.0038,1.0,0.9999,0.0,0.0003,0.0,0.0,0.0,0.0002,1.0,1.0,0.0,0.0017,0.0,0.0,0.0,0.0,1.0,1.0,0.0,0.0278,0.0,0.0,0.0,0.0,1.0,1.0,0.0,0.3655,0.0,0.0,0.0,0.0,1.0,1.0,1.0,0.937
TSEVO,LSTMFCN,47,1,0,155.5491,0.5417,0.4,2.1229,34.6915,7.1422,0.5002,1.0,0.6632,0.0,0.0001,1.0,0.5002,1.0,0.9998,1.0,0.5116,0.0,0.0001,0.0,0.3573,1.0,0.9984,1.0,0.7997,0.0,0.0001,0.0,0.0324,1.0,0.9292,1.0,0.6588,0.0,0.0001,0.0,0.0022,0.0,0.0862,1.0,1.0,0.0,0.0001,0.0,0.0,0.0,0.0015,1.0,1.0,0.0,0.0001,0.0,0.0,0.0,0.0001,1.0,1.0,0.0,0.0001,0.0,0.0,0.0,0.0,1.0,1.0,0.0,0.0001,0.0,0.0,0.0,0.0,1.0,1.0,0.0,0.0001,0.0,0.0,0.0,0.0,1.0,1.0,0.0,0.0004,0.0,0.0,0.0,0.0,1.0,1.0,0.0,0.0021,0.0,0.0,0.0,0.0
TSEVO,LSTMFCN,49,1,0,153.2171,0.4375,0.4,3.1583,39.6545,6.8848,0.5005,1.0,0.8042,0.0,0.0003,1.0,0.5005,1.0,0.9993,1.0,0.9148,0.0,0.0001,0.0,0.3826,1.0,0.9965,1.0,0.9382,0.0,0.0,0.0,0.0088,1.0,0.9708,1.0,0.9994,0.0,0.0,0.0,0.0,0.0,0.3007,1.0,1.0,0.0,0.0,0.0,0.0,0.0,0.0016,1.0,1.0,0.0,0.0001,0.0,0.0,0.0,0.0,1.0,1.0,0.0,0.0002,0.0,0.0,0.0,0.0,1.0,1.0,0.0,0.0004,0.0,0.0,0.0,0.0,1.0,1.0,0.0,0.0004,0.0,0.0,0.0,0.0,1.0,1.0,0.0,0.0004,0.0,0.0,0.0,0.0,1.0,1.0,0.0,0.0006,0.0,0.0,0.0,0.0
TSEVO,LSTMFCN,7,1,0,144.8167,0.7396,0.3,1.472,11.9565,3.6383,0.5002,1.0,0.9923,0.0,0.0066,1.0,0.5002,1.0,0.9978,1.0,0.9911,0.0,0.0026,0.0,0.467,1.0,0.9792,1.0,0.9987,0.0,0.0016,0.0,0.1761,0.0,0.3116,1.0,0.9999,0.0,0.0027,0.0,0.0092,0.0,0.0115,1.0,1.0,0.0,0.0195,0.0,0.0,0.0,0.0011,1.0,1.0,0.0,0.269,0.0,0.0,0.0,0.0003,1.0,1.0,1.0,0.9176,0.0,0.0,0.0,0.0001,1.0,1.0,1.0,0.9932,0.0,0.0,0.0,0.0001,1.0,1.0,1.0,0.9986,0.0,0.0,0.0,0.0,1.0,1.0,1.0,0.9997,0.0,0.0,0.0,0.0,1.0,1.0,1.0,0.9999,0.0,0.0,0.0,0.0
TSEVO,LSTMFCN,97,0,1,157.836,0.9062,0.7,2.78,6.9294,3.5206,0.5001,1.0,0.9084,1.0,1.0,1.0,0.5001,0.0,0.0002,1.0,0.9164,1.0,0.9999,1.0,0.9027,0.0,0.0,1.0,0.7541,1.0,0.9996,1.0,0.8244,0.0,0.0,0.0,0.053,1.0,0.9967,1.0,0.9992,0.0,0.0,0.0,0.0,1.0,0.9412,1.0,1.0,0.0,0.0,0.0,0.0008,0.0,0.4367,1.0,1.0,0.0,0.0,0.0,0.0,0.0,0.0986,1.0,1.0,0.0,0.0,0.0,0.0,0.0,0.0314,1.0,1.0,0.0,0.0,0.0,0.0,0.0,0.0131,1.0,1.0,0.0,0.0001,0.0,0.0,0.0,0.0082,1.0,1.0,0.0,0.0003,0.0,0.0,0.0,0.0062,1.0,1.0,0.0,0.0007
TSEVO,LSTMFCN,59,0,1,158.5385,0.8229,0.6,1.799,14.0686,3.801,0.5,1.0,0.8947,1.0,0.9999,1.0,0.5,0.0,0.0005,1.0,0.9547,1.0,0.9998,1.0,0.5491,0.0,0.0002,1.0,0.8414,1.0,0.9988,1.0,0.7188,0.0,0.0001,0.0,0.4477,1.0,0.9681,1.0,0.9658,0.0,0.0001,0.0,0.0006,0.0,0.3856,1.0,0.9973,0.0,0.0001,0.0,0.0,0.0,0.0274,1.0,1.0,0.0,0.0002,0.0,0.0,0.0,0.0039,1.0,1.0,0.0,0.0006,0.0,0.0,0.0,0.001,1.0,1.0,0.0,0.0013,0.0,0.0,0.0,0.0004,1.0,1.0,0.0,0.0041,0.0,0.0,0.0,0.0002,1.0,1.0,0.0,0.0161,0.0,0.0,0.0,0.0001,1.0,1.0,0.0,0.0605
TSEVO,LSTMFCN,95,1,0,148.7349,0.7292,0.4,1.7932,12.3558,3.3192,0.5001,1.0,0.9915,0.0,0.0077,1.0,0.5001,1.0,0.9952,1.0,0.9898,0.0,0.0009,0.0,0.4404,1.0,0.9871,1.0,0.9783,0.0,0.0001,0.0,0.0216,1.0,0.9444,1.0,0.9995,0.0,0.0,0.0,0.0052,1.0,0.5507,1.0,1.0,0.0,0.0,0.0,0.0,0.0,0.0447,1.0,1.0,0.0,0.0,0.0,0.0,0.0,0.0029,1.0,1.0,0.0,0.0,0.0,0.0,0.0,0.0003,1.0,1.0,0.0,0.0,0.0,0.0,0.0,0.0001,1.0,1.0,0.0,0.0,0.0,0.0,0.0,0.0,1.0,1.0,0.0,0.0,0.0,0.0,0.0,0.0,1.0,1.0,0.0,0.0,0.0,0.0,0.0,0.0
TSEVO,LSTMFCN,13,0,1,166.5483,0.8021,0.6,2.0042,9.5848,2.7551,0.5,1.0,0.9961,1.0,1.0,1.0,0.5,0.0,0.0,1.0,0.9965,1.0,1.0,1.0,0.6289,0.0,0.0,1.0,0.9918,1.0,0.9999,1.0,0.7367,0.0,0.0,1.0,0.7018,1.0,0.9999,1.0,0.7213,0.0,0.0,0.0,0.0063,1.0,0.9996,1.0,0.9573,0.0,0.0,0.0,0.001,1.0,0.9965,1.0,1.0,0.0,0.0,0.0,0.0,1.0,0.9587,1.0,1.0,0.0,0.0,0.0,0.0,1.0,0.6085,1.0,1.0,0.0,0.0,0.0,0.0,0.0,0.1344,1.0,1.0,0.0,0.0006,0.0,0.0,0.0,0.031,1.0,1.0,0.0,0.0051,0.0,0.0,0.0,0.0109,1.0,1.0,0.0,0.0237
TSEVO,LSTMFCN,1,1,0,155.953,0.2188,0.1,2.4527,46.9827,7.6446,0.5001,1.0,0.9988,0.0,0.005,1.0,0.5001,1.0,0.9991,1.0,0.9994,0.0,0.0026,1.0,0.5489,1.0,0.9984,1.0,0.9977,0.0,0.0015,0.0,0.0528,1.0,0.9969,1.0,1.0,0.0,0.0009,0.0,0.0002,1.0,0.9512,1.0,1.0,0.0,0.0024,0.0,0.0,0.0,0.1213,1.0,1.0,0.0,0.015,0.0,0.0,0.0,0.0035,1.0,1.0,0.0,0.0943,0.0,0.0,0.0,0.0004,1.0,1.0,1.0,0.5524,0.0,0.0,0.0,0.0001,1.0,1.0,1.0,0.9615,0.0,0.0,0.0,0.0,1.0,1.0,1.0,0.998,0.0,0.0,0.0,0.0,1.0,1.0,1.0,0.9998,0.0,0.0,0.0,0.0
TSEVO,LSTMFCN,31,1,0,152.5489,0.5938,0.4,2.2456,24.8281,4.4356,0.5004,1.0,0.9699,0.0,0.0058,1.0,0.5004,1.0,0.9995,1.0,0.9812,0.0,0.0037,0.0,0.195,1.0,0.9978,1.0,0.9955,0.0,0.0028,0.0,0.1633,1.0,0.9899,1.0,1.0,0.0,0.0022,0.0,0.0006,1.0,0.9366,1.0,1.0,0.0,0.0023,0.0,0.0,1.0,0.7184,1.0,1.0,0.0,0.0015,0.0,0.0,0.0,0.2095,1.0,1.0,0.0,0.0005,0.0,0.0,0.0,0.0131,1.0,1.0,0.0,0.0003,0.0,0.0,0.0,0.0004,1.0,1.0,0.0,0.0003,0.0,0.0,0.0,0.0,1.0,1.0,0.0,0.0008,0.0,0.0,0.0,0.0,1.0,1.0,0.0,0.0053,0.0,0.0,0.0,0.0
TSEVO,LSTMFCN,27,1,0,154.6219,0.5729,0.5,1.0501,11.9397,2.2897,0.5002,1.0,0.9646,0.0,0.0019,1.0,0.5002,1.0,0.9998,1.0,0.9752,0.0,0.0007,1.0,0.655,1.0,0.9991,1.0,0.9914,0.0,0.0004,0.0,0.4277,1.0,0.9955,1.0,0.9991,0.0,0.0004,0.0,0.2344,1.0,0.9059,1.0,0.9993,0.0,0.0008,0.0,0.0,0.0,0.1695,1.0,1.0,0.0,0.001,0.0,0.0,0.0,0.0085,1.0,1.0,0.0,0.0007,0.0,0.0,0.0,0.0012,1.0,1.0,0.0,0.0007,0.0,0.0,0.0,0.0004,1.0,1.0,0.0,0.0012,0.0,0.0,0.0,0.0002,1.0,1.0,0.0,0.003,0.0,0.0,0.0,0.0001,1.0,1.0,0.0,0.01,0.0,0.0,0.0,0.0001
TSEVO,LSTMFCN,9,0,1,164.2156,0.9583,0.9,2.9466,5.7116,3.6973,0.5001,1.0,0.9508,1.0,0.9999,1.0,0.5001,0.0,0.0007,1.0,0.9363,1.0,0.9998,0.0,0.1084,0.0,0.0001,1.0,0.7012,1.0,0.9996,1.0,0.979,0.0,0.0,0.0,0.1332,1.0,0.9946,1.0,0.9997,0.0,0.0,0.0,0.0006,1.0,0.5351,1.0,1.0,0.0,0.0,0.0,0.0,0.0,0.0295,1.0,1.0,0.0,0.0001,0.0,0.0,0.0,0.0058,1.0,1.0,0.0,0.0001,0.0,0.0,0.0,0.002,1.0,1.0,0.0,0.0002,0.0,0.0,0.0,0.0009,1.0,1.0,0.0,0.0011,0.0,0.0,0.0,0.0005,1.0,1.0,0.0,0.0115,0.0,0.0,0.0,0.0004,1.0,1.0,0.0,0.0903
TSEVO,LSTMFCN,16,1,0,148.8458,0.5,0.4,2.772,31.5234,5.7041,0.5002,1.0,0.9995,0.0,0.0941,1.0,0.5002,1.0,0.9969,1.0,0.9995,0.0,0.0212,0.0,0.2955,1.0,0.9852,1.0,0.9996,0.0,0.0122,0.0,0.0104,1.0,0.7896,1.0,1.0,0.0,0.0106,0.0,0.0034,0.0,0.1705,1.0,1.0,0.0,0.0109,0.0,0.0,0.0,0.0228,1.0,1.0,0.0,0.005,0.0,0.0,0.0,0.0062,1.0,1.0,0.0,0.0012,0.0,0.0,0.0,0.0036,1.0,1.0,0.0,0.0004,0.0,0.0,0.0,0.0023,1.0,1.0,0.0,0.0003,0.0,0.0,0.0,0.0013,1.0,1.0,0.0,0.0005,0.0,0.0,0.0,0.0006,1.0,1.0,0.0,0.0009,0.0,0.0,0.0,0.0003
TSEVO,LSTMFCN,60,0,1,164.737,0.8333,0.5,3.3374,13.8091,4.6559,0.5002,1.0,0.9994,1.0,0.9999,1.0,0.5002,0.0,0.0032,1.0,0.9993,1.0,0.9979,1.0,0.7923,0.0,0.0006,1.0,0.853,1.0,0.9444,1.0,0.9995,0.0,0.0002,0.0,0.0002,0.0,0.2627,1.0,1.0,0.0,0.0001,0.0,0.0,0.0,0.0156,1.0,1.0,0.0,0.0001,0.0,0.0,0.0,0.0016,1.0,1.0,0.0,0.0001,0.0,0.0,0.0,0.0003,1.0,1.0,0.0,0.0002,0.0,0.0,0.0,0.0001,1.0,1.0,0.0,0.0002,0.0,0.0,0.0,0.0,1.0,1.0,0.0,0.0004,0.0,0.0,0.0,0.0,1.0,1.0,0.0,0.0005,0.0,0.0,0.0,0.0,1.0,1.0,0.0,0.0005
TSEVO,LSTMFCN,15,1,0,156.4669,0.8646,0.7,1.5953,10.8824,3.6638,0.5,1.0,0.9573,0.0,0.0004,1.0,0.5,1.0,0.9996,1.0,0.963,0.0,0.0001,1.0,0.5313,1.0,0.9984,1.0,0.9824,0.0,0.0001,0.0,0.0393,1.0,0.9833,1.0,0.9991,0.0,0.0001,0.0,0.0061,1.0,0.7967,1.0,1.0,0.0,0.0001,0.0,0.0,0.0,0.1862,1.0,1.0,0.0,0.0003,0.0,0.0,0.0,0.0208,1.0,1.0,0.0,0.0004,0.0,0.0,0.0,0.0027,1.0,1.0,0.0,0.0008,0.0,0.0,0.0,0.0004,1.0,1.0,0.0,0.0026,0.0,0.0,0.0,0.0001,1.0,1.0,0.0,0.0117,0.0,0.0,0.0,0.0,1.0,1.0,0.0,0.0606,0.0,0.0,0.0,0.0
TSEVO,LSTMFCN,98,0,1,166.9952,0.9688,0.9,0.7775,1.7656,1.0231,0.5,1.0,0.7568,1.0,0.9934,1.0,0.5,0.0,0.0084,1.0,0.7178,1.0,0.9745,1.0,0.5049,0.0,0.0021,0.0,0.4549,1.0,0.7592,1.0,0.9036,0.0,0.0007,0.0,0.0147,0.0,0.1384,1.0,0.9988,0.0,0.0003,0.0,0.0008,0.0,0.0122,1.0,0.9995,0.0,0.0001,0.0,0.0,0.0,0.0018,1.0,1.0,0.0,0.0001,0.0,0.0,0.0,0.0004,1.0,1.0,0.0,0.0001,0.0,0.0,0.0,0.0001,1.0,1.0,0.0,0.0001,0.0,0.0,0.0,0.0001,1.0,1.0,0.0,0.0001,0.0,0.0,0.0,0.0,1.0,1.0,0.0,0.0001,0.0,0.0,0.0,0.0,1.0,1.0,0.0,0.0001
TSEVO,LSTMFCN,34,1,0,151.8286,0.7396,0.6,3.8243,20.9979,6.8436,0.5001,1.0,0.6481,0.0,0.0003,1.0,0.5001,1.0,0.9995,1.0,0.5784,0.0,0.0,0.0,0.269,1.0,0.9972,1.0,0.9654,0.0,0.0,0.0,0.0147,1.0,0.9382,1.0,1.0,0.0,0.0,0.0,0.0005,0.0,0.1189,1.0,1.0,0.0,0.0,0.0,0.0002,0.0,0.0023,1.0,1.0,0.0,0.0,0.0,0.0,0.0,0.0001,1.0,1.0,0.0,0.0,0.0,0.0,0.0,0.0,1.0,1.0,0.0,0.0001,0.0,0.0,0.0,0.0,1.0,1.0,0.0,0.0001,0.0,0.0,0.0,0.0,1.0,1.0,0.0,0.0001,0.0,0.0,0.0,0.0,1.0,1.0,0.0,0.0002,0.0,0.0,0.0,0.0
TSEVO,LSTMFCN,14,0,1,160.3764,0.6562,0.7,4.5205,31.5786,6.1538,0.5001,1.0,1.0,1.0,1.0,1.0,0.5001,0.0,0.0001,1.0,0.9999,1.0,1.0,1.0,0.5687,0.0,0.0,1.0,0.9999,1.0,1.0,1.0,0.8901,0.0,0.0,1.0,0.9931,1.0,1.0,1.0,0.9938,0.0,0.0,0.0,0.1813,1.0,1.0,1.0,1.0,0.0,0.0,0.0,0.0,1.0,0.9999,1.0,1.0,0.0,0.0,0.0,0.0,1.0,0.9994,1.0,1.0,0.0,0.0,0.0,0.0,1.0,0.9943,1.0,1.0,0.0,0.0002,0.0,0.0,1.0,0.961,1.0,1.0,0.0,0.0008,0.0,0.0,1.0,0.7764,1.0,1.0,0.0,0.0019,0.0,0.0,0.0,0.3882,1.0,1.0,0.0,0.0074
TSEVO,LSTMFCN,66,1,0,152.5177,0.6875,0.6,3.0019,23.8176,5.1498,0.5003,1.0,0.9928,0.0,0.0064,1.0,0.5003,1.0,0.9982,1.0,0.9937,0.0,0.0042,0.0,0.4586,1.0,0.9972,1.0,0.9995,0.0,0.0027,1.0,0.6971,1.0,0.9869,1.0,0.9999,0.0,0.0018,0.0,0.0761,1.0,0.906,1.0,1.0,0.0,0.0012,0.0,0.0001,1.0,0.53,1.0,1.0,0.0,0.001,0.0,0.0,0.0,0.1654,1.0,1.0,0.0,0.0008,0.0,0.0,0.0,0.0392,1.0,1.0,0.0,0.0005,0.0,0.0,0.0,0.0107,1.0,1.0,0.0,0.0003,0.0,0.0,0.0,0.0035,1.0,1.0,0.0,0.0003,0.0,0.0,0.0,0.0013,1.0,1.0,0.0,0.0006,0.0,0.0,0.0,0.0006
TSEVO,LSTMFCN,53,0,1,170.7261,0.8438,0.4,1.4695,10.106,3.7144,0.5,1.0,0.9813,1.0,0.9999,1.0,0.5,0.0,0.0001,1.0,0.9764,1.0,0.9999,0.0,0.2137,0.0,0.0,1.0,0.9525,1.0,0.9998,1.0,0.8897,0.0,0.0,0.0,0.3807,1.0,0.9987,1.0,0.9972,0.0,0.0,0.0,0.0721,1.0,0.9584,1.0,1.0,0.0,0.0001,0.0,0.0,0.0,0.3183,1.0,1.0,0.0,0.0001,0.0,0.0,0.0,0.0353,1.0,1.0,0.0,0.0008,0.0,0.0,0.0,0.0045,1.0,1.0,0.0,0.0164,0.0,0.0,0.0,0.0011,1.0,1.0,0.0,0.2544,0.0,0.0,0.0,0.0004,1.0,1.0,1.0,0.8228,0.0,0.0,0.0,0.0003,1.0,1.0,1.0,0.9804
TSEVO,LSTMFCN,10,0,1,154.4067,0.9896,0.9,0.2697,0.2697,0.2697,0.5005,1.0,0.5389,1.0,0.9948,1.0,0.5005,0.0,0.0055,0.0,0.1148,1.0,0.9417,1.0,0.8746,0.0,0.0007,0.0,0.0122,0.0,0.2363,1.0,1.0,0.0,0.0001,0.0,0.0008,0.0,0.0179,1.0,0.9957,0.0,0.0,0.0,0.0,0.0,0.0021,1.0,1.0,0.0,0.0,0.0,0.0,0.0,0.0003,1.0,1.0,0.0,0.0,0.0,0.0,0.0,0.0001,1.0,1.0,0.0,0.0,0.0,0.0,0.0,0.0,1.0,1.0,0.0,0.0,0.0,0.0,0.0,0.0,1.0,1.0,0.0,0.0,0.0,0.0,0.0,0.0,1.0,1.0,0.0,0.0,0.0,0.0,0.0,0.0,1.0,1.0,0.0,0.0
TSEVO,LSTMFCN,48,1,0,152.9265,0.8333,0.8,3.3775,16.8173,4.7487,0.5,1.0,0.9986,0.0,0.0101,1.0,0.5,1.0,0.9943,1.0,0.9988,0.0,0.0026,0.0,0.4854,1.0,0.9869,1.0,0.9998,0.0,0.0009,0.0,0.2123,1.0,0.8722,1.0,1.0,0.0,0.0006,0.0,0.0019,0.0,0.3005,1.0,1.0,0.0,0.0005,0.0,0.0,0.0,0.0408,1.0,1.0,0.0,0.0004,0.0,0.0,0.0,0.0074,1.0,1.0,0.0,0.0004,0.0,0.0,0.0,0.0016,1.0,1.0,0.0,0.0007,0.0,0.0,0.0,0.0003,1.0,1.0,0.0,0.0018,0.0,0.0,0.0,0.0001,1.0,1.0,0.0,0.0047,0.0,0.0,0.0,0.0,1.0,1.0,0.0,0.0129,0.0,0.0,0.0,0.0
TSEVO,LSTMFCN,79,1,0,150.0478,0.3125,0.2,3.5999,43.176,7.0124,0.5003,1.0,0.9998,0.0,0.0064,1.0,0.5003,1.0,0.9906,1.0,0.9999,0.0,0.0038,0.0,0.3383,1.0,0.97,1.0,0.9999,0.0,0.0032,0.0,0.0697,1.0,0.8187,1.0,1.0,0.0,0.0032,0.0,0.0265,0.0,0.1512,1.0,1.0,0.0,0.004,0.0,0.0,0.0,0.0156,1.0,1.0,0.0,0.004,0.0,0.0003,0.0,0.0038,1.0,1.0,0.0,0.0024,0.0,0.0,0.0,0.0013,1.0,1.0,0.0,0.0013,0.0,0.0,0.0,0.0007,1.0,1.0,0.0,0.0014,0.0,0.0,0.0,0.0004,1.0,1.0,0.0,0.0019,0.0,0.0,0.0,0.0002,1.0,1.0,0.0,0.0044,0.0,0.0,0.0,0.0002
TSEVO,LSTMFCN,87,0,1,162.7254,0.8854,0.7,0.7301,3.7083,1.4422,0.5,1.0,0.9347,1.0,0.9999,1.0,0.5,0.0,0.0001,1.0,0.9315,1.0,0.9999,1.0,0.52,0.0,0.0,1.0,0.9035,1.0,0.9998,0.0,0.2612,0.0,0.0,0.0,0.2884,1.0,0.9994,1.0,0.9671,0.0,0.0001,0.0,0.0131,1.0,0.9948,1.0,0.9785,0.0,0.0001,0.0,0.0,1.0,0.9438,1.0,1.0,0.0,0.0001,0.0,0.0,1.0,0.5632,1.0,1.0,0.0,0.0002,0.0,0.0,0.0,0.156,1.0,1.0,0.0,0.0006,0.0,0.0,0.0,0.0387,1.0,1.0,0.0,0.0043,0.0,0.0,0.0,0.0124,1.0,1.0,0.0,0.0339,0.0,0.0,0.0,0.0054,1.0,1.0,0.0,0.1732
TSEVO,LSTMFCN,67,1,0,151.8465,0.7812,0.7,2.0418,16.4531,4.7863,0.5001,1.0,0.9731,0.0,0.0022,1.0,0.5001,1.0,0.9932,1.0,0.9823,0.0,0.0015,0.0,0.3342,1.0,0.9637,1.0,0.9978,0.0,0.0018,0.0,0.1477,0.0,0.3316,1.0,0.9999,0.0,0.0085,0.0,0.0,0.0,0.0012,1.0,1.0,0.0,0.1146,0.0,0.0,0.0,0.0,1.0,1.0,0.0,0.4172,0.0,0.0,0.0,0.0,1.0,1.0,1.0,0.6681,0.0,0.0,0.0,0.0,1.0,1.0,1.0,0.8449,0.0,0.0,0.0,0.0,1.0,1.0,1.0,0.9256,0.0,0.0,0.0,0.0,1.0,1.0,1.0,0.9702,0.0,0.0,0.0,0.0,1.0,1.0,1.0,0.9927,0.0,0.0,0.0,0.0
TSEVO,LSTMFCN,24,1,0,164.1927,0.3438,0.2,4.1339,64.3579,10.204,0.5002,1.0,1.0,0.0,0.0045,1.0,0.5002,1.0,1.0,1.0,1.0,0.0,0.0016,1.0,0.565,1.0,1.0,1.0,1.0,0.0,0.001,1.0,0.7175,1.0,1.0,1.0,1.0,0.0,0.0011,0.0,0.0412,1.0,1.0,1.0,1.0,0.0,0.0015,0.0,0.001,1.0,1.0,1.0,1.0,0.0,0.0027,0.0,0.0,1.0,0.9999,1.0,1.0,0.0,0.009,0.0,0.0,1.0,0.9998,1.0,1.0,0.0,0.0352,0.0,0.0,1.0,0.9994,1.0,1.0,0.0,0.2045,0.0,0.0,1.0,0.9971,1.0,1.0,1.0,0.8049,0.0,0.0,1.0,0.9909,1.0,1.0,1.0,0.9876,0.0,0.0,1.0,0.967
TSEVO,LSTMFCN,8,1,0,163.4676,0.6354,0.4,1.6763,11.4479,2.6457,0.5003,1.0,0.9812,0.0,0.0098,1.0,0.5003,1.0,0.999,1.0,0.9835,0.0,0.0012,0.0,0.1038,1.0,0.996,1.0,0.9998,0.0,0.0001,0.0,0.0136,1.0,0.9406,1.0,1.0,0.0,0.0,0.0,0.0,0.0,0.3275,1.0,1.0,0.0,0.0,0.0,0.0,0.0,0.0253,1.0,1.0,0.0,0.0,0.0,0.0,0.0,0.0015,1.0,1.0,0.0,0.0,0.0,0.0,0.0,0.0001,1.0,1.0,0.0,0.0,0.0,0.0,0.0,0.0,1.0,1.0,0.0,0.0,0.0,0.0,0.0,0.0,1.0,1.0,0.0,0.0,0.0,0.0,0.0,0.0,1.0,1.0,0.0,0.0,0.0,0.0,0.0,0.0
