Method,Model,Sample_Index,Original_Class,Counterfactual_Class,Generation_Time,Tp_Sparsity,Seg_Sparsity,DTW,L1,L2,CF_Conf,Orig_Rob_Gauss_eps0.00,Orig_Conf_Gauss_eps0.00,Orig_Rob_Adv_eps0.00,Orig_Conf_Adv_eps0.00,CF_Rob_Gauss_eps0.00,CF_Conf_Gauss_eps0.00,CF_Rob_Adv_eps0.00,CF_Conf_Adv_eps0.00,Orig_Rob_Gauss_eps0.20,Orig_Conf_Gauss_eps0.20,Orig_Rob_Adv_eps0.20,Orig_Conf_Adv_eps0.20,CF_Rob_Gauss_eps0.20,CF_Conf_Gauss_eps0.20,CF_Rob_Adv_eps0.20,CF_Conf_Adv_eps0.20,Orig_Rob_Gauss_eps0.40,Orig_Conf_Gauss_eps0.40,Orig_Rob_Adv_eps0.40,Orig_Conf_Adv_eps0.40,CF_Rob_Gauss_eps0.40,CF_Conf_Gauss_eps0.40,CF_Rob_Adv_eps0.40,CF_Conf_Adv_eps0.40,Orig_Rob_Gauss_eps0.60,Orig_Conf_Gauss_eps0.60,Orig_Rob_Adv_eps0.60,Orig_Conf_Adv_eps0.60,CF_Rob_Gauss_eps0.60,CF_Conf_Gauss_eps0.60,CF_Rob_Adv_eps0.60,CF_Conf_Adv_eps0.60,Orig_Rob_Gauss_eps0.80,Orig_Conf_Gauss_eps0.80,Orig_Rob_Adv_eps0.80,Orig_Conf_Adv_eps0.80,CF_Rob_Gauss_eps0.80,CF_Conf_Gauss_eps0.80,CF_Rob_Adv_eps0.80,CF_Conf_Adv_eps0.80,Orig_Rob_Gauss_eps1.00,Orig_Conf_Gauss_eps1.00,Orig_Rob_Adv_eps1.00,Orig_Conf_Adv_eps1.00,CF_Rob_Gauss_eps1.00,CF_Conf_Gauss_eps1.00,CF_Rob_Adv_eps1.00,CF_Conf_Adv_eps1.00,Orig_Rob_Gauss_eps1.20,Orig_Conf_Gauss_eps1.20,Orig_Rob_Adv_eps1.20,Orig_Conf_Adv_eps1.20,CF_Rob_Gauss_eps1.20,CF_Conf_Gauss_eps1.20,CF_Rob_Adv_eps1.20,CF_Conf_Adv_eps1.20,Orig_Rob_Gauss_eps1.40,Orig_Conf_Gauss_eps1.40,Orig_Rob_Adv_eps1.40,Orig_Conf_Adv_eps1.40,CF_Rob_Gauss_eps1.40,CF_Conf_Gauss_eps1.40,CF_Rob_Adv_eps1.40,CF_Conf_Adv_eps1.40,Orig_Rob_Gauss_eps1.60,Orig_Conf_Gauss_eps1.60,Orig_Rob_Adv_eps1.60,Orig_Conf_Adv_eps1.60,CF_Rob_Gauss_eps1.60,CF_Conf_Gauss_eps1.60,CF_Rob_Adv_eps1.60,CF_Conf_Adv_eps1.60,Orig_Rob_Gauss_eps1.80,Orig_Conf_Gauss_eps1.80,Orig_Rob_Adv_eps1.80,Orig_Conf_Adv_eps1.80,CF_Rob_Gauss_eps1.80,CF_Conf_Gauss_eps1.80,CF_Rob_Adv_eps1.80,CF_Conf_Adv_eps1.80,Orig_Rob_Gauss_eps2.00,Orig_Conf_Gauss_eps2.00,Orig_Rob_Adv_eps2.00,Orig_Conf_Adv_eps2.00,CF_Rob_Gauss_eps2.00,CF_Conf_Gauss_eps2.00,CF_Rob_Adv_eps2.00,CF_Conf_Adv_eps2.00
TSEVO,LSTMFCN,1145,0,1,265.7699,0.85,0.6,4.0762,33.1672,9.4534,0.2172,1.0,0.9941,1.0,0.8681,1.0,0.2172,0.0,0.0,1.0,0.9979,1.0,0.9205,0.0,0.0153,0.0,0.0,1.0,0.9999,1.0,0.9778,0.0,0.0096,0.0,0.0,1.0,1.0,1.0,0.9891,0.0,0.0041,0.0,0.0,1.0,1.0,1.0,0.9936,0.0,0.0025,0.0,0.0,1.0,0.9955,1.0,0.9957,0.0,0.0556,0.0,0.0,1.0,0.965,1.0,0.997,0.0,0.2858,0.0,0.0,1.0,0.5247,1.0,0.9983,0.0,0.0611,0.0,0.0,0.0,0.0156,1.0,0.9988,0.0,0.0046,0.0,0.0,0.0,0.0001,1.0,0.9991,0.0,0.0662,0.0,0.0001,0.0,0.0165,1.0,0.9993,0.0,0.0059,0.0,0.0001
TSEVO,LSTMFCN,815,0,4,261.8766,0.7857,0.3,6.7184,34.4796,9.6907,0.2417,1.0,0.9995,1.0,0.9909,1.0,0.2417,0.0,0.0007,1.0,0.9999,1.0,0.995,0.0,0.149,0.0,0.0008,1.0,1.0,1.0,0.9963,0.0,0.0055,0.0,0.0006,1.0,1.0,1.0,0.9939,0.0,0.047,0.0,0.0005,1.0,0.9999,1.0,0.9839,0.0,0.0011,0.0,0.0008,1.0,0.9998,1.0,0.9673,1.0,0.7565,0.0,0.0011,1.0,0.9796,1.0,0.9627,1.0,0.7755,0.0,0.0013,1.0,0.9728,1.0,0.9737,1.0,0.7215,0.0,0.0014,0.0,0.0241,1.0,0.9864,1.0,0.9769,0.0,0.0014,0.0,0.1494,1.0,0.9934,1.0,0.9992,0.0,0.0011,0.0,0.0,1.0,0.9963,1.0,0.9977,0.0,0.0008
TSEVO,LSTMFCN,2755,1,3,324.0366,0.7786,0.6,3.8717,30.6856,7.8888,0.2632,1.0,0.9053,0.0,0.0024,1.0,0.2632,0.0,0.019,1.0,0.9078,0.0,0.005,1.0,0.3321,0.0,0.0205,1.0,0.9508,0.0,0.0016,0.0,0.0021,0.0,0.0068,1.0,0.9688,0.0,0.0004,0.0,0.0012,0.0,0.0004,1.0,0.9567,0.0,0.0003,0.0,0.0081,0.0,0.0002,1.0,0.9835,0.0,0.0003,0.0,0.0083,0.0,0.0001,1.0,0.9939,0.0,0.0003,0.0,0.0006,0.0,0.0001,1.0,0.9534,0.0,0.0004,0.0,0.0002,0.0,0.0001,1.0,0.9735,0.0,0.0004,0.0,0.0,0.0,0.0001,1.0,0.5209,0.0,0.0004,0.0,0.0,0.0,0.0001,1.0,0.7259,0.0,0.0004,0.0,0.0,0.0,0.0001
TSEVO,LSTMFCN,1079,0,1,278.8183,0.6786,0.2,7.4232,37.3307,9.8606,0.2161,1.0,0.927,1.0,0.9972,1.0,0.2161,0.0,0.0,1.0,0.9804,1.0,0.9972,0.0,0.2137,0.0,0.0,1.0,0.9999,1.0,0.9989,0.0,0.3122,0.0,0.0,1.0,0.9999,1.0,0.9995,0.0,0.1982,0.0,0.0,1.0,0.9999,1.0,0.9997,1.0,0.9474,0.0,0.0,1.0,0.9994,1.0,0.9998,1.0,0.9164,0.0,0.0,1.0,0.9971,1.0,0.9999,0.0,0.3286,0.0,0.0,1.0,0.8401,1.0,0.9999,0.0,0.2335,0.0,0.0001,0.0,0.296,1.0,0.9999,0.0,0.453,0.0,0.0003,0.0,0.0082,1.0,0.9999,1.0,0.8083,0.0,0.0006,0.0,0.0007,1.0,0.9998,0.0,0.0291,0.0,0.0008
TSEVO,LSTMFCN,1546,0,3,276.572,0.8571,0.5,6.3163,25.6483,8.8641,0.2026,1.0,0.9998,1.0,0.954,1.0,0.2026,0.0,0.0006,1.0,1.0,1.0,0.9762,0.0,0.1419,0.0,0.0003,1.0,1.0,1.0,0.9952,0.0,0.0037,0.0,0.0003,1.0,1.0,1.0,0.9977,0.0,0.0017,0.0,0.0002,1.0,1.0,1.0,0.9975,0.0,0.0022,0.0,0.0002,1.0,0.9999,1.0,0.9974,0.0,0.0008,0.0,0.0003,1.0,0.9843,1.0,0.9976,0.0,0.0006,0.0,0.0003,1.0,0.9603,1.0,0.9981,0.0,0.0001,0.0,0.0002,0.0,0.1533,1.0,0.9986,0.0,0.0,0.0,0.0002,0.0,0.0806,1.0,0.9989,0.0,0.0,0.0,0.0002,0.0,0.0029,1.0,0.999,0.0,0.0,0.0,0.0001
TSEVO,LSTMFCN,3433,1,3,397.2322,0.6,0.4,7.839,49.0677,10.7479,0.3278,1.0,0.9459,0.0,0.0059,1.0,0.3278,0.0,0.0251,1.0,0.8925,0.0,0.0005,0.0,0.1476,0.0,0.0013,1.0,0.9523,0.0,0.0,0.0,0.007,0.0,0.0001,1.0,0.9831,0.0,0.0,0.0,0.0034,0.0,0.0,1.0,0.8821,0.0,0.0,0.0,0.0007,0.0,0.0,1.0,0.959,0.0,0.0,0.0,0.0001,0.0,0.0,1.0,0.9815,0.0,0.0,0.0,0.0008,0.0,0.0,1.0,0.9408,0.0,0.0,0.0,0.0023,0.0,0.0,1.0,0.8975,0.0,0.0,0.0,0.0,0.0,0.0,1.0,0.6681,0.0,0.0,0.0,0.0,0.0,0.0,0.0,0.0158,0.0,0.0,0.0,0.0,0.0,0.0
TSEVO,LSTMFCN,4250,1,3,384.7932,0.7,0.4,8.2187,66.5075,14.5335,0.2428,1.0,0.9491,0.0,0.0008,1.0,0.2428,0.0,0.0137,1.0,0.9177,0.0,0.0009,0.0,0.2108,0.0,0.0129,1.0,0.9838,0.0,0.0001,0.0,0.0352,0.0,0.0034,1.0,0.9691,0.0,0.0,0.0,0.0098,0.0,0.0007,1.0,0.905,0.0,0.0,0.0,0.0004,0.0,0.0002,1.0,0.9601,0.0,0.0,0.0,0.0027,0.0,0.0001,1.0,0.9841,0.0,0.0,0.0,0.0008,0.0,0.0,1.0,0.9004,0.0,0.0,0.0,0.0007,0.0,0.0,0.0,0.1453,0.0,0.0001,0.0,0.0,0.0,0.0,0.0,0.0172,0.0,0.0001,0.0,0.0,0.0,0.0,0.0,0.3693,0.0,0.0001,0.0,0.0,0.0,0.0
TSEVO,LSTMFCN,1811,0,2,298.0732,0.7857,0.3,4.2601,32.5799,9.1307,0.2378,1.0,0.9921,1.0,0.7474,1.0,0.2378,0.0,0.0532,1.0,0.9986,1.0,0.8912,0.0,0.1777,0.0,0.0044,1.0,1.0,1.0,0.9373,0.0,0.008,0.0,0.0008,1.0,1.0,1.0,0.9575,0.0,0.0008,0.0,0.0002,1.0,0.9998,1.0,0.9752,0.0,0.0017,0.0,0.0001,1.0,0.9994,1.0,0.9836,0.0,0.0053,0.0,0.0001,1.0,0.999,1.0,0.991,0.0,0.0006,0.0,0.0001,1.0,0.8253,1.0,0.9957,0.0,0.0004,0.0,0.0,1.0,0.662,1.0,0.9981,0.0,0.0043,0.0,0.0,0.0,0.0632,1.0,0.9989,0.0,0.0013,0.0,0.0,0.0,0.0,1.0,0.9992,0.0,0.0001,0.0,0.0
TSEVO,LSTMFCN,2390,0,1,258.6194,0.7929,0.6,6.5358,37.5889,10.14,0.2273,1.0,0.9999,1.0,0.9702,1.0,0.2273,0.0,0.0004,1.0,1.0,1.0,0.9725,0.0,0.034,0.0,0.0,1.0,1.0,1.0,0.9781,0.0,0.0011,0.0,0.0,1.0,1.0,1.0,0.986,0.0,0.0032,0.0,0.0,1.0,1.0,1.0,0.9893,0.0,0.0002,0.0,0.0,1.0,1.0,1.0,0.992,0.0,0.205,0.0,0.0,1.0,0.9955,1.0,0.9937,0.0,0.037,0.0,0.0,1.0,0.973,1.0,0.9944,0.0,0.1505,0.0,0.0,1.0,0.8181,1.0,0.9959,0.0,0.0084,0.0,0.0,0.0,0.3595,1.0,0.9972,0.0,0.0523,0.0,0.0001,0.0,0.003,1.0,0.9981,0.0,0.0112,0.0,0.0002
TSEVO,LSTMFCN,2466,0,3,456.3776,0.8143,0.5,7.3236,25.4309,8.8013,0.217,1.0,0.9998,1.0,0.955,1.0,0.217,0.0,0.0002,1.0,0.9999,1.0,0.9704,0.0,0.0389,0.0,0.0001,1.0,1.0,1.0,0.993,0.0,0.0001,0.0,0.0001,1.0,1.0,1.0,0.998,0.0,0.0,0.0,0.0002,1.0,1.0,1.0,0.9984,0.0,0.0002,0.0,0.0003,1.0,0.9999,1.0,0.9978,0.0,0.0001,0.0,0.0003,1.0,0.9991,1.0,0.9967,0.0,0.0,0.0,0.0003,1.0,0.9902,1.0,0.9959,0.0,0.0,0.0,0.0004,0.0,0.3542,1.0,0.9961,0.0,0.0,0.0,0.0004,0.0,0.0629,1.0,0.9966,0.0,0.0,0.0,0.0003,0.0,0.0003,1.0,0.9976,0.0,0.0,0.0,0.0002
TSEVO,LSTMFCN,4188,1,3,412.6064,0.6714,0.3,6.8131,45.6799,11.0427,0.2215,1.0,0.9847,0.0,0.0002,1.0,0.2215,0.0,0.0561,1.0,0.9539,0.0,0.0002,0.0,0.2529,0.0,0.0179,1.0,0.9551,0.0,0.0001,0.0,0.0248,0.0,0.0037,1.0,0.9249,0.0,0.0,0.0,0.0124,0.0,0.0003,1.0,0.9869,0.0,0.0,0.0,0.0033,0.0,0.0001,1.0,0.9925,0.0,0.0,0.0,0.0046,0.0,0.0,1.0,0.9187,0.0,0.0001,0.0,0.0041,0.0,0.0,1.0,0.9909,0.0,0.0001,0.0,0.0003,0.0,0.0,1.0,0.8414,0.0,0.0001,0.0,0.0003,0.0,0.0,1.0,0.7325,0.0,0.0001,0.0,0.0,0.0,0.0,0.0,0.137,0.0,0.0001,0.0,0.0,0.0,0.0
TSEVO,LSTMFCN,1522,0,1,404.7798,0.6857,0.2,8.1861,46.04,11.3,0.2074,1.0,0.9999,1.0,0.9722,1.0,0.2074,0.0,0.0001,1.0,1.0,1.0,0.982,0.0,0.0522,0.0,0.0,1.0,1.0,1.0,0.9957,0.0,0.0411,0.0,0.0,1.0,1.0,1.0,0.9975,0.0,0.0026,0.0,0.0,1.0,1.0,1.0,0.9971,0.0,0.0115,0.0,0.0001,1.0,1.0,1.0,0.9966,0.0,0.0776,0.0,0.0001,1.0,0.9987,1.0,0.9969,0.0,0.0054,0.0,0.0001,1.0,0.9438,1.0,0.9978,0.0,0.0102,0.0,0.0001,1.0,0.8224,1.0,0.9986,0.0,0.02,0.0,0.0,0.0,0.2939,1.0,0.9991,0.0,0.0399,0.0,0.0,0.0,0.0151,1.0,0.9994,0.0,0.0,0.0,0.0
TSEVO,LSTMFCN,2077,0,1,275.4007,0.5571,0.4,9.7317,54.125,12.8198,0.2065,1.0,1.0,1.0,0.9185,1.0,0.2065,0.0,0.0001,1.0,1.0,1.0,0.7046,0.0,0.0724,0.0,0.0,1.0,1.0,1.0,0.5282,0.0,0.0126,0.0,0.0,1.0,1.0,1.0,0.8822,0.0,0.0001,0.0,0.0,1.0,1.0,1.0,0.9902,0.0,0.0004,0.0,0.0,1.0,0.9972,1.0,0.9972,0.0,0.0147,0.0,0.0,1.0,0.998,1.0,0.9986,0.0,0.0113,0.0,0.0,1.0,0.9888,1.0,0.9992,0.0,0.0072,0.0,0.0,1.0,0.6401,1.0,0.9995,0.0,0.0014,0.0,0.0,0.0,0.003,1.0,0.9997,0.0,0.0008,0.0,0.0,0.0,0.0001,1.0,0.9998,0.0,0.0154,0.0,0.0
TSEVO,LSTMFCN,2329,0,1,266.8725,0.6214,0.2,3.4045,58.1827,10.9407,0.2069,1.0,0.9964,1.0,0.9658,1.0,0.2069,0.0,0.0025,1.0,0.9993,1.0,0.892,1.0,0.321,0.0,0.0,1.0,0.9999,1.0,0.9034,0.0,0.1738,0.0,0.0,1.0,1.0,1.0,0.979,0.0,0.0093,0.0,0.0,1.0,1.0,1.0,0.994,0.0,0.0078,0.0,0.0,1.0,0.9997,1.0,0.9969,0.0,0.0235,0.0,0.0,1.0,0.9889,1.0,0.998,0.0,0.3563,0.0,0.0,1.0,0.9762,1.0,0.9985,0.0,0.0871,0.0,0.0,1.0,0.7101,1.0,0.9986,1.0,0.632,0.0,0.0,0.0,0.0309,1.0,0.9987,0.0,0.2709,0.0,0.0,0.0,0.0002,1.0,0.9987,0.0,0.0034,0.0,0.0
TSEVO,LSTMFCN,780,0,3,441.5893,0.4857,0.2,4.5901,39.3049,7.7719,0.2027,1.0,0.9986,1.0,0.9723,1.0,0.2027,0.0,0.028,1.0,0.9991,1.0,0.936,0.0,0.1719,0.0,0.0058,1.0,0.9999,1.0,0.9298,0.0,0.023,0.0,0.0031,1.0,0.9999,1.0,0.9379,0.0,0.0032,0.0,0.0015,1.0,1.0,1.0,0.9552,0.0,0.001,0.0,0.0008,1.0,0.998,1.0,0.9699,0.0,0.0033,0.0,0.0004,1.0,0.9822,1.0,0.9776,0.0,0.0007,0.0,0.0002,1.0,0.8914,1.0,0.9878,0.0,0.0,0.0,0.0001,0.0,0.1386,1.0,0.9943,0.0,0.0,0.0,0.0001,0.0,0.0072,1.0,0.9966,0.0,0.0,0.0,0.0,0.0,0.0042,1.0,0.9974,0.0,0.0,0.0,0.0
TSEVO,LSTMFCN,4091,2,0,350.2611,0.7143,0.6,10.0158,34.9122,10.8747,0.2593,1.0,0.9986,1.0,0.9159,1.0,0.2593,0.0,0.1313,1.0,0.8385,0.0,0.2039,1.0,0.4142,1.0,0.5358,0.0,0.2508,0.0,0.0033,1.0,0.9691,1.0,0.7458,0.0,0.0303,0.0,0.0004,1.0,0.9952,1.0,0.964,0.0,0.0044,0.0,0.0001,1.0,0.992,1.0,0.9943,0.0,0.0123,0.0,0.0,0.0,0.265,1.0,0.9982,0.0,0.0015,0.0,0.0,0.0,0.1458,1.0,0.9989,0.0,0.0124,0.0,0.0,1.0,0.683,1.0,0.9991,0.0,0.0028,0.0,0.0,0.0,0.0864,1.0,0.9988,0.0,0.0016,0.0,0.0,0.0,0.0,1.0,0.9983,0.0,0.0062,0.0,0.0,0.0,0.0001,1.0,0.9979
TSEVO,LSTMFCN,3135,1,3,336.1122,0.5429,0.4,8.5263,48.3697,11.0823,0.2193,1.0,0.9363,0.0,0.0004,1.0,0.2193,0.0,0.0077,1.0,0.858,0.0,0.0001,0.0,0.0685,0.0,0.0023,1.0,0.9123,0.0,0.0,0.0,0.0869,0.0,0.0004,1.0,0.7716,0.0,0.0,0.0,0.0146,0.0,0.0001,1.0,0.4988,0.0,0.0,0.0,0.0006,0.0,0.0,1.0,0.7937,0.0,0.0,0.0,0.0005,0.0,0.0,1.0,0.9203,0.0,0.0001,0.0,0.0004,0.0,0.0,1.0,0.9815,0.0,0.0001,0.0,0.0001,0.0,0.0,1.0,0.8878,0.0,0.0001,0.0,0.0,0.0,0.0,0.0,0.0831,0.0,0.0001,0.0,0.0,0.0,0.0,1.0,0.642,0.0,0.0,0.0,0.0,0.0,0.0
TSEVO,LSTMFCN,3764,1,3,261.5818,0.6143,0.4,5.5146,38.6165,8.409,0.2083,1.0,0.9683,0.0,0.0038,1.0,0.2083,0.0,0.0038,1.0,0.9456,0.0,0.0022,0.0,0.254,0.0,0.0003,1.0,0.9045,0.0,0.001,0.0,0.0846,0.0,0.0001,1.0,0.9666,0.0,0.0002,0.0,0.0297,0.0,0.0,0.0,0.1206,0.0,0.0002,0.0,0.058,0.0,0.0,1.0,0.4872,0.0,0.0002,0.0,0.0007,0.0,0.0,1.0,0.9989,0.0,0.0002,0.0,0.0029,0.0,0.0,1.0,0.9834,0.0,0.0002,0.0,0.0012,0.0,0.0,1.0,0.9942,0.0,0.0003,0.0,0.0,0.0,0.0,1.0,0.5473,0.0,0.0004,0.0,0.0,0.0,0.0,1.0,0.7825,0.0,0.0005,0.0,0.0,0.0,0.0
TSEVO,LSTMFCN,3268,1,3,210.1912,0.5857,0.4,6.9634,38.0027,7.7847,0.2911,1.0,0.8242,0.0,0.0006,1.0,0.2911,0.0,0.0009,1.0,0.6076,0.0,0.0001,1.0,0.3169,0.0,0.0001,1.0,0.7295,0.0,0.0,0.0,0.1068,0.0,0.0001,1.0,0.8766,0.0,0.0,0.0,0.0755,0.0,0.0001,1.0,0.9221,0.0,0.0,0.0,0.0085,0.0,0.0002,1.0,0.9339,0.0,0.0,0.0,0.0095,0.0,0.0001,1.0,0.9723,0.0,0.0,0.0,0.0045,0.0,0.0001,1.0,0.5077,0.0,0.0,0.0,0.0011,0.0,0.0001,1.0,0.9434,0.0,0.0001,0.0,0.0006,0.0,0.0001,0.0,0.1479,0.0,0.0001,0.0,0.0,0.0,0.0,0.0,0.0002,0.0,0.0001,0.0,0.0,0.0,0.0
TSEVO,LSTMFCN,2280,0,2,210.1416,0.7857,0.6,6.9191,32.8456,10.165,0.2145,1.0,0.9999,1.0,0.9565,1.0,0.2145,0.0,0.0283,1.0,1.0,1.0,0.9669,0.0,0.1369,0.0,0.0055,1.0,1.0,1.0,0.9846,0.0,0.0157,0.0,0.0012,1.0,1.0,1.0,0.9924,0.0,0.0056,0.0,0.0003,1.0,1.0,1.0,0.995,0.0,0.0068,0.0,0.0001,1.0,0.9999,1.0,0.9964,0.0,0.003,0.0,0.0001,1.0,0.9959,1.0,0.9968,0.0,0.0013,0.0,0.0001,1.0,0.9446,1.0,0.9967,0.0,0.0022,0.0,0.0,0.0,0.0036,1.0,0.997,0.0,0.0002,0.0,0.0,0.0,0.119,1.0,0.9979,0.0,0.0006,0.0,0.0,0.0,0.0123,1.0,0.9985,0.0,0.0,0.0,0.0
TSEVO,LSTMFCN,2446,0,1,204.9484,0.8857,0.7,3.9546,18.0387,6.6018,0.2015,1.0,0.9996,1.0,0.9825,1.0,0.2015,0.0,0.0017,1.0,0.9999,1.0,0.9875,0.0,0.0731,0.0,0.0001,1.0,1.0,1.0,0.9855,0.0,0.1513,0.0,0.0003,1.0,1.0,1.0,0.9649,0.0,0.0071,0.0,0.0014,1.0,0.9992,1.0,0.9624,0.0,0.1635,0.0,0.0026,1.0,0.9995,1.0,0.9728,1.0,0.6999,0.0,0.0024,1.0,0.9397,1.0,0.9845,0.0,0.1835,0.0,0.0018,1.0,0.8997,1.0,0.9874,0.0,0.0291,0.0,0.0019,0.0,0.0264,1.0,0.9898,0.0,0.0417,0.0,0.0022,0.0,0.0006,1.0,0.9902,0.0,0.2055,0.0,0.0025,0.0,0.0,1.0,0.9902,0.0,0.0492,0.0,0.003
TSEVO,LSTMFCN,4297,1,0,205.7631,0.5786,0.1,5.3901,39.657,8.5495,0.25,1.0,0.9958,0.0,0.0001,1.0,0.25,1.0,0.9857,1.0,0.9896,0.0,0.0002,0.0,0.3219,1.0,0.9887,1.0,0.9913,0.0,0.0002,1.0,0.6783,1.0,0.9954,1.0,0.9326,0.0,0.0001,0.0,0.3518,1.0,0.9988,1.0,0.971,0.0,0.0001,1.0,0.5857,1.0,0.9996,1.0,0.9256,0.0,0.0001,1.0,0.9404,1.0,0.9998,1.0,0.9253,0.0,0.0001,0.0,0.0079,1.0,0.9999,1.0,0.9596,0.0,0.0001,0.0,0.0418,1.0,0.9998,1.0,0.9234,0.0,0.0001,0.0,0.001,1.0,0.9998,1.0,0.95,0.0,0.0002,0.0,0.0,1.0,0.9998,0.0,0.0158,0.0,0.0002,0.0,0.0,1.0,0.9998
TSEVO,LSTMFCN,3032,1,0,208.7979,0.8214,0.5,5.6286,34.218,8.7047,0.2346,1.0,0.8898,0.0,0.0025,1.0,0.2346,1.0,0.9768,0.0,0.2956,0.0,0.0005,1.0,0.4478,1.0,0.9649,0.0,0.0016,0.0,0.0003,1.0,0.8562,1.0,0.9815,0.0,0.0001,0.0,0.0002,1.0,0.9931,1.0,0.9933,0.0,0.0001,0.0,0.0002,1.0,0.9702,1.0,0.9967,0.0,0.0001,0.0,0.0001,0.0,0.3213,1.0,0.9978,0.0,0.0006,0.0,0.0001,0.0,0.3144,1.0,0.9983,0.0,0.0013,0.0,0.0002,0.0,0.0028,1.0,0.9986,0.0,0.0174,0.0,0.0002,0.0,0.0,1.0,0.9989,0.0,0.0012,0.0,0.0002,0.0,0.0058,1.0,0.999,0.0,0.0,0.0,0.0002,0.0,0.0,1.0,0.9991
TSEVO,LSTMFCN,2611,0,1,203.8923,0.5357,0.2,7.0961,41.7306,10.1962,0.2028,1.0,0.9998,1.0,0.9099,1.0,0.2028,0.0,0.0002,1.0,1.0,1.0,0.8605,0.0,0.0206,0.0,0.0,1.0,1.0,1.0,0.937,0.0,0.0282,0.0,0.0,1.0,1.0,1.0,0.9801,0.0,0.0011,0.0,0.0,1.0,1.0,1.0,0.9922,0.0,0.0037,0.0,0.0,1.0,1.0,1.0,0.9961,0.0,0.0023,0.0,0.0,1.0,0.9831,1.0,0.9975,0.0,0.0272,0.0,0.0,1.0,0.9293,1.0,0.9982,0.0,0.0041,0.0,0.0,0.0,0.1317,1.0,0.999,0.0,0.0026,0.0,0.0,0.0,0.0273,1.0,0.9995,0.0,0.0053,0.0,0.0,0.0,0.0001,1.0,0.9996,0.0,0.0053,0.0,0.0001
TSEVO,LSTMFCN,1855,0,3,200.3576,0.4714,0.2,5.99,35.4046,8.0853,0.2234,1.0,0.9998,1.0,0.9745,1.0,0.2234,0.0,0.0003,1.0,1.0,1.0,0.9805,0.0,0.1112,0.0,0.0002,1.0,1.0,1.0,0.9957,0.0,0.0105,0.0,0.0003,1.0,1.0,1.0,0.9985,0.0,0.0005,0.0,0.0004,1.0,1.0,1.0,0.999,0.0,0.0,0.0,0.0003,1.0,1.0,1.0,0.9991,0.0,0.0,0.0,0.0003,1.0,0.9992,1.0,0.9991,0.0,0.0006,0.0,0.0002,1.0,0.9988,1.0,0.9993,0.0,0.0001,0.0,0.0002,0.0,0.0044,1.0,0.9993,0.0,0.0,0.0,0.0001,0.0,0.0005,1.0,0.9993,0.0,0.0,0.0,0.0001,0.0,0.0006,1.0,0.9992,0.0,0.0,0.0,0.0
TSEVO,LSTMFCN,534,0,3,214.7223,0.7929,0.5,5.0151,21.8614,7.4769,0.2183,1.0,0.9991,1.0,0.9988,1.0,0.2183,0.0,0.0,1.0,0.9998,1.0,0.9981,0.0,0.0895,0.0,0.0,1.0,1.0,1.0,0.9976,0.0,0.014,0.0,0.0,1.0,1.0,1.0,0.9973,0.0,0.0013,0.0,0.0,1.0,0.9999,1.0,0.9984,0.0,0.001,0.0,0.0,1.0,0.9991,1.0,0.9992,0.0,0.0007,0.0,0.0001,1.0,0.9981,1.0,0.9996,0.0,0.0001,0.0,0.0001,1.0,0.6561,1.0,0.9998,0.0,0.0,0.0,0.0001,1.0,0.8134,1.0,0.9999,0.0,0.0,0.0,0.0,0.0,0.0257,1.0,0.9999,0.0,0.0,0.0,0.0,0.0,0.0047,1.0,0.9998,0.0,0.0,0.0,0.0
TSEVO,LSTMFCN,3836,1,3,232.6122,0.7714,0.7,8.5791,50.1375,11.9525,0.3357,1.0,0.9804,0.0,0.011,1.0,0.3357,0.0,0.0014,1.0,0.9598,0.0,0.0048,0.0,0.1036,0.0,0.0007,1.0,0.718,0.0,0.0023,0.0,0.0001,0.0,0.0003,1.0,0.8699,0.0,0.0007,0.0,0.0,0.0,0.0002,0.0,0.1117,0.0,0.0003,0.0,0.0,0.0,0.0001,0.0,0.3936,0.0,0.0002,0.0,0.0,0.0,0.0,0.0,0.3117,0.0,0.0002,0.0,0.0,0.0,0.0,1.0,0.9609,0.0,0.0002,0.0,0.0,0.0,0.0,0.0,0.3531,0.0,0.0003,0.0,0.0,0.0,0.0,1.0,0.7568,0.0,0.0004,0.0,0.0,0.0,0.0001,0.0,0.3732,0.0,0.0005,0.0,0.0,0.0,0.0001
TSEVO,LSTMFCN,2048,0,2,217.5352,0.7857,0.7,6.6101,38.8701,8.9801,0.2087,1.0,0.9776,1.0,0.9617,1.0,0.2087,0.0,0.0031,1.0,0.9943,1.0,0.9103,0.0,0.1972,0.0,0.0004,1.0,0.9907,1.0,0.9611,0.0,0.0295,0.0,0.0,1.0,0.9998,1.0,0.9931,0.0,0.0077,0.0,0.0,1.0,1.0,1.0,0.9959,0.0,0.0345,0.0,0.0,1.0,0.8589,1.0,0.9967,0.0,0.0062,0.0,0.0,1.0,0.9853,1.0,0.9975,0.0,0.0018,0.0,0.0,1.0,0.8815,1.0,0.9978,0.0,0.0239,0.0,0.0,0.0,0.0975,1.0,0.9981,0.0,0.0017,0.0,0.0,0.0,0.1147,1.0,0.9984,0.0,0.0003,0.0,0.0,0.0,0.0,1.0,0.9987,0.0,0.0006,0.0,0.0
TSEVO,LSTMFCN,42,0,4,222.6869,0.5286,0.4,3.4885,35.1275,7.0843,0.2031,1.0,0.9996,1.0,0.9762,1.0,0.2031,0.0,0.0014,1.0,0.9998,1.0,0.9867,0.0,0.1443,0.0,0.0015,1.0,1.0,1.0,0.9922,0.0,0.0631,0.0,0.0012,1.0,1.0,1.0,0.9947,0.0,0.0453,0.0,0.0013,1.0,0.9996,1.0,0.9968,0.0,0.0374,0.0,0.0017,1.0,0.9996,1.0,0.9984,0.0,0.3597,0.0,0.0026,1.0,0.9697,1.0,0.999,1.0,0.4759,0.0,0.0016,0.0,0.4939,1.0,0.9989,1.0,0.8926,0.0,0.0009,0.0,0.1057,1.0,0.9981,1.0,0.886,0.0,0.0006,0.0,0.0001,1.0,0.9969,1.0,0.6556,0.0,0.0004,0.0,0.005,1.0,0.9957,1.0,0.9936,0.0,0.0003
TSEVO,LSTMFCN,2656,1,3,365.1329,0.5286,0.3,5.1776,58.9143,10.6671,0.2249,1.0,0.9499,0.0,0.0016,1.0,0.2249,0.0,0.0032,1.0,0.9314,0.0,0.0023,0.0,0.082,0.0,0.001,1.0,0.9881,0.0,0.0006,0.0,0.0073,0.0,0.0002,1.0,0.8379,0.0,0.0001,0.0,0.0041,0.0,0.0001,1.0,0.9363,0.0,0.0,0.0,0.0004,0.0,0.0,1.0,0.9796,0.0,0.0,0.0,0.0001,0.0,0.0,1.0,0.9407,0.0,0.0,0.0,0.0004,0.0,0.0,1.0,0.8741,0.0,0.0001,0.0,0.0001,0.0,0.0,1.0,0.9779,0.0,0.0001,0.0,0.0,0.0,0.0,0.0,0.4405,0.0,0.0001,0.0,0.0,0.0,0.0,0.0,0.0405,0.0,0.0001,0.0,0.0,0.0,0.0
TSEVO,LSTMFCN,4393,3,1,392.7066,0.65,0.4,3.2936,26.0018,4.5802,0.2595,1.0,0.6709,0.0,0.1536,1.0,0.2595,0.0,0.1043,1.0,0.8495,0.0,0.1034,0.0,0.1108,0.0,0.0163,1.0,0.6028,0.0,0.0707,0.0,0.0024,0.0,0.0023,0.0,0.0013,0.0,0.0282,0.0,0.0004,0.0,0.0003,0.0,0.0006,0.0,0.0169,0.0,0.0065,0.0,0.0001,0.0,0.0007,0.0,0.0086,0.0,0.0026,0.0,0.0,0.0,0.0001,0.0,0.0042,0.0,0.0666,0.0,0.0,0.0,0.0004,0.0,0.0037,0.0,0.0021,0.0,0.0,0.0,0.0003,0.0,0.0032,0.0,0.002,0.0,0.0,0.0,0.0,0.0,0.0026,0.0,0.0018,0.0,0.0001,0.0,0.0,0.0,0.0019,0.0,0.2482,0.0,0.0001
TSEVO,LSTMFCN,3027,1,3,228.0715,0.8071,0.5,5.6241,31.5611,8.5161,0.2117,1.0,0.9746,0.0,0.0281,1.0,0.2117,0.0,0.0184,1.0,0.9062,0.0,0.0665,0.0,0.1669,0.0,0.0027,0.0,0.1945,0.0,0.0395,0.0,0.001,0.0,0.0016,0.0,0.0002,0.0,0.0082,0.0,0.0002,0.0,0.0013,0.0,0.0044,0.0,0.0039,0.0,0.0,0.0,0.0009,0.0,0.0062,0.0,0.0047,0.0,0.0001,0.0,0.0007,1.0,0.5451,0.0,0.0041,0.0,0.0003,0.0,0.0005,1.0,0.8066,0.0,0.0039,0.0,0.0,0.0,0.0003,0.0,0.1764,0.0,0.0032,0.0,0.0002,0.0,0.0002,0.0,0.0345,0.0,0.0025,0.0,0.0,0.0,0.0002,0.0,0.0521,0.0,0.002,0.0,0.0,0.0,0.0001
TSEVO,LSTMFCN,553,0,2,226.2054,0.8571,0.5,6.2014,24.9647,8.7911,0.2075,1.0,0.9999,1.0,0.9296,1.0,0.2075,0.0,0.0696,1.0,1.0,1.0,0.9502,0.0,0.1917,0.0,0.0069,1.0,1.0,1.0,0.9879,0.0,0.1106,0.0,0.001,1.0,1.0,1.0,0.9949,0.0,0.0007,0.0,0.0003,1.0,1.0,1.0,0.9953,0.0,0.0026,0.0,0.0002,1.0,0.9993,1.0,0.997,0.0,0.0042,0.0,0.0002,1.0,0.9972,1.0,0.9978,0.0,0.0022,0.0,0.0002,1.0,0.937,1.0,0.9985,0.0,0.0021,0.0,0.0001,1.0,0.5402,1.0,0.9991,0.0,0.0,0.0,0.0,0.0,0.1132,1.0,0.9994,0.0,0.0004,0.0,0.0,0.0,0.0446,1.0,0.9996,0.0,0.0,0.0,0.0
TSEVO,LSTMFCN,3856,1,3,289.9787,0.8786,0.6,9.342,31.9175,11.5335,0.3347,1.0,0.9679,0.0,0.0214,1.0,0.3347,0.0,0.015,1.0,0.9156,0.0,0.003,0.0,0.0369,0.0,0.0017,1.0,0.9427,0.0,0.0011,0.0,0.0009,0.0,0.0004,0.0,0.4362,0.0,0.0002,0.0,0.0,0.0,0.0001,1.0,0.7974,0.0,0.0001,0.0,0.0,0.0,0.0,1.0,0.7704,0.0,0.0001,0.0,0.0,0.0,0.0,1.0,0.7515,0.0,0.0001,0.0,0.0,0.0,0.0,1.0,0.9789,0.0,0.0001,0.0,0.0005,0.0,0.0,1.0,0.4897,0.0,0.0001,0.0,0.0,0.0,0.0,0.0,0.24,0.0,0.0001,0.0,0.0,0.0,0.0,0.0,0.0289,0.0,0.0001,0.0,0.0,0.0,0.0
TSEVO,LSTMFCN,3045,1,3,318.6659,0.5357,0.3,5.476,43.5972,7.5385,0.2664,1.0,0.9678,0.0,0.0227,1.0,0.2664,0.0,0.0022,1.0,0.8434,0.0,0.0026,0.0,0.202,0.0,0.001,1.0,0.8954,0.0,0.0003,0.0,0.0189,0.0,0.0002,1.0,0.9209,0.0,0.0,0.0,0.0033,0.0,0.0001,1.0,0.9244,0.0,0.0,0.0,0.002,0.0,0.0,1.0,0.9915,0.0,0.0,0.0,0.0031,0.0,0.0,1.0,0.994,0.0,0.0001,0.0,0.0007,0.0,0.0,1.0,0.7461,0.0,0.0002,0.0,0.0007,0.0,0.0,1.0,0.9869,0.0,0.0003,0.0,0.0,0.0,0.0,0.0,0.3216,0.0,0.0005,0.0,0.0,0.0,0.0,0.0,0.1164,0.0,0.0006,0.0,0.0,0.0,0.0
TSEVO,LSTMFCN,2165,0,3,326.3127,0.85,0.4,4.7866,27.001,9.0926,0.2043,1.0,0.9983,1.0,0.9292,1.0,0.2043,0.0,0.0009,1.0,0.999,1.0,0.967,0.0,0.12,0.0,0.0007,1.0,1.0,1.0,0.9938,0.0,0.0094,0.0,0.0005,1.0,1.0,1.0,0.9986,0.0,0.0006,0.0,0.0002,1.0,0.9996,1.0,0.9995,0.0,0.0013,0.0,0.0001,1.0,0.9998,1.0,0.9997,0.0,0.012,0.0,0.0001,1.0,0.9969,1.0,0.9997,0.0,0.0075,0.0,0.0001,1.0,0.9658,1.0,0.9997,0.0,0.0,0.0,0.0001,1.0,0.9411,1.0,0.9997,0.0,0.0,0.0,0.0001,0.0,0.0089,1.0,0.9996,0.0,0.0,0.0,0.0001,0.0,0.0021,1.0,0.9995,0.0,0.0,0.0,0.0001
TSEVO,LSTMFCN,3584,1,3,324.5173,0.8214,0.6,4.6799,26.2419,7.6607,0.3366,1.0,0.9575,1.0,0.5457,1.0,0.3366,0.0,0.0171,1.0,0.8685,0.0,0.0487,0.0,0.1333,0.0,0.004,1.0,0.7088,0.0,0.0017,0.0,0.0005,0.0,0.0015,1.0,0.6731,0.0,0.0002,0.0,0.0001,0.0,0.0006,1.0,0.7216,0.0,0.0,0.0,0.0,0.0,0.0003,1.0,0.555,0.0,0.0,0.0,0.0,0.0,0.0002,1.0,0.3752,0.0,0.0,0.0,0.0,0.0,0.0001,1.0,0.8214,0.0,0.0,0.0,0.0004,0.0,0.0,1.0,0.9864,0.0,0.0,0.0,0.0,0.0,0.0,1.0,0.8822,0.0,0.0,0.0,0.0,0.0,0.0,1.0,0.5135,0.0,0.0001,0.0,0.0,0.0,0.0
TSEVO,LSTMFCN,2805,1,3,231.1335,0.5643,0.0,3.4287,27.8219,5.0556,0.2562,1.0,0.948,0.0,0.0011,1.0,0.2562,0.0,0.0023,1.0,0.9514,0.0,0.0039,0.0,0.2666,0.0,0.0008,1.0,0.9882,0.0,0.0018,0.0,0.111,0.0,0.0003,1.0,0.8857,0.0,0.0006,0.0,0.0822,0.0,0.0001,1.0,0.8618,0.0,0.0008,0.0,0.0309,0.0,0.0,1.0,0.7785,0.0,0.0011,0.0,0.0127,0.0,0.0,0.0,0.3638,0.0,0.0016,0.0,0.0027,0.0,0.0,1.0,0.5781,0.0,0.0016,0.0,0.0002,0.0,0.0,0.0,0.0088,0.0,0.0015,0.0,0.0,0.0,0.0,1.0,0.9509,0.0,0.0014,0.0,0.0,0.0,0.0,0.0,0.3496,0.0,0.0013,0.0,0.0,0.0,0.0
TSEVO,LSTMFCN,886,0,2,223.91,0.8714,0.6,6.65,28.6118,9.4438,0.2064,1.0,0.9997,1.0,0.9206,1.0,0.2064,0.0,0.1204,1.0,0.9999,1.0,0.9644,0.0,0.1967,0.0,0.0266,1.0,1.0,1.0,0.9898,0.0,0.0065,0.0,0.0043,1.0,1.0,1.0,0.9942,0.0,0.0012,0.0,0.0009,1.0,1.0,1.0,0.9934,0.0,0.0038,0.0,0.0003,1.0,0.9999,1.0,0.9936,0.0,0.0,0.0,0.0001,1.0,0.9952,1.0,0.9943,0.0,0.0008,0.0,0.0001,1.0,0.9503,1.0,0.9955,0.0,0.0004,0.0,0.0001,0.0,0.0486,1.0,0.9975,0.0,0.0001,0.0,0.0,0.0,0.1491,1.0,0.9986,0.0,0.0002,0.0,0.0,0.0,0.0024,1.0,0.9992,0.0,0.0,0.0,0.0
TSEVO,LSTMFCN,3257,1,3,225.8662,0.8643,0.7,4.2631,27.4702,8.3618,0.337,1.0,0.9549,0.0,0.0097,1.0,0.337,0.0,0.0141,1.0,0.9445,0.0,0.0152,0.0,0.1833,0.0,0.0042,1.0,0.977,0.0,0.0092,0.0,0.0037,0.0,0.0005,1.0,0.9552,0.0,0.0023,0.0,0.0004,0.0,0.0001,1.0,0.8911,0.0,0.0015,0.0,0.0,0.0,0.0,1.0,0.8654,0.0,0.001,0.0,0.0001,0.0,0.0,1.0,0.9531,0.0,0.0008,0.0,0.0003,0.0,0.0001,1.0,0.5632,0.0,0.0009,0.0,0.0001,0.0,0.0001,1.0,0.8759,0.0,0.0011,0.0,0.0001,0.0,0.0001,0.0,0.2416,0.0,0.0011,0.0,0.0002,0.0,0.0001,1.0,0.7734,0.0,0.0011,0.0,0.0,0.0,0.0001
TSEVO,LSTMFCN,2203,0,4,225.8535,0.6286,0.4,6.0091,42.1545,10.9275,0.2194,1.0,0.9985,1.0,0.8309,1.0,0.2194,0.0,0.0014,1.0,0.9995,1.0,0.9049,0.0,0.1896,0.0,0.0017,1.0,0.9999,1.0,0.958,0.0,0.028,0.0,0.0009,1.0,0.9999,1.0,0.9626,0.0,0.0407,0.0,0.0004,1.0,0.9999,1.0,0.9697,0.0,0.1383,0.0,0.0005,1.0,0.9996,1.0,0.9818,1.0,0.4629,0.0,0.0009,1.0,0.9969,1.0,0.9894,1.0,0.7618,0.0,0.0015,1.0,0.9716,1.0,0.9945,1.0,0.8108,0.0,0.0022,0.0,0.2626,1.0,0.9975,1.0,0.9544,0.0,0.0018,0.0,0.2501,1.0,0.9988,1.0,0.946,0.0,0.0009,0.0,0.0063,1.0,0.9994,1.0,0.9974,0.0,0.0003
TSEVO,LSTMFCN,569,0,1,456.8239,0.5286,0.4,5.1271,38.8475,8.88,0.2138,1.0,0.9997,1.0,0.9758,1.0,0.2138,0.0,0.0001,1.0,0.9999,1.0,0.9706,0.0,0.0303,0.0,0.0,1.0,1.0,1.0,0.9908,0.0,0.02,0.0,0.0,1.0,1.0,1.0,0.9969,0.0,0.0,0.0,0.0,1.0,0.9999,1.0,0.9984,0.0,0.0011,0.0,0.0,1.0,0.9942,1.0,0.9985,0.0,0.0078,0.0,0.0,1.0,0.9947,1.0,0.9983,0.0,0.0,0.0,0.0,0.0,0.4281,1.0,0.9985,0.0,0.0023,0.0,0.0,0.0,0.0185,1.0,0.9986,0.0,0.0041,0.0,0.0,0.0,0.092,1.0,0.9985,0.0,0.02,0.0,0.0,0.0,0.0,1.0,0.9986,0.0,0.0,0.0,0.0001
TSEVO,LSTMFCN,1176,0,3,459.3015,0.3929,0.2,4.9211,68.4002,9.8517,0.2107,1.0,0.9994,1.0,0.9665,1.0,0.2107,0.0,0.0007,1.0,0.9997,1.0,0.9895,0.0,0.2704,0.0,0.0007,1.0,1.0,1.0,0.9957,0.0,0.1025,0.0,0.0006,1.0,1.0,1.0,0.9992,0.0,0.0171,0.0,0.0001,1.0,0.9999,1.0,0.9997,0.0,0.0085,0.0,0.0,1.0,0.9998,1.0,0.9998,0.0,0.0093,0.0,0.0,1.0,0.9818,1.0,0.9999,0.0,0.0006,0.0,0.0,1.0,0.9978,1.0,0.9998,0.0,0.002,0.0,0.0,0.0,0.08,1.0,0.9998,0.0,0.0013,0.0,0.0,0.0,0.0041,1.0,0.9998,0.0,0.0,0.0,0.0,0.0,0.0001,1.0,0.9998,0.0,0.0,0.0,0.0
TSEVO,LSTMFCN,1974,0,3,286.7851,0.6357,0.4,4.087,29.3123,5.6593,0.2061,1.0,0.9974,1.0,0.9736,1.0,0.2061,0.0,0.0012,1.0,0.9991,1.0,0.9743,0.0,0.2196,0.0,0.0002,1.0,0.9999,1.0,0.9922,0.0,0.0313,0.0,0.0001,1.0,0.9999,1.0,0.9964,0.0,0.0021,0.0,0.0,1.0,0.9997,1.0,0.9977,0.0,0.0136,0.0,0.0,1.0,0.9983,1.0,0.9982,0.0,0.0173,0.0,0.0,1.0,0.9731,1.0,0.9985,0.0,0.0023,0.0,0.0,1.0,0.7182,1.0,0.9988,0.0,0.0002,0.0,0.0,0.0,0.0081,1.0,0.999,0.0,0.0003,0.0,0.0,0.0,0.3011,1.0,0.9991,0.0,0.0,0.0,0.0,0.0,0.0,1.0,0.9991,0.0,0.0,0.0,0.0
TSEVO,LSTMFCN,3071,1,3,217.2572,0.4714,0.1,4.4081,57.6199,8.7981,0.2152,1.0,0.9693,0.0,0.0011,1.0,0.2152,0.0,0.0021,1.0,0.9407,0.0,0.0013,0.0,0.1182,0.0,0.0003,1.0,0.9811,0.0,0.0003,0.0,0.0346,0.0,0.0001,1.0,0.9768,0.0,0.0001,0.0,0.0394,0.0,0.0,1.0,0.9802,0.0,0.0,0.0,0.0234,0.0,0.0,1.0,0.6432,0.0,0.0,0.0,0.0046,0.0,0.0,1.0,0.9896,0.0,0.0,0.0,0.0078,0.0,0.0,0.0,0.1479,0.0,0.0,0.0,0.0008,0.0,0.0,1.0,0.5813,0.0,0.0001,0.0,0.0002,0.0,0.0,0.0,0.0028,0.0,0.0001,0.0,0.0,0.0,0.0,0.0,0.0376,0.0,0.0001,0.0,0.0,0.0,0.0001
TSEVO,LSTMFCN,93,0,3,225.0662,0.55,0.2,7.1963,51.0599,12.2496,0.2418,1.0,0.9996,1.0,0.9644,1.0,0.2418,0.0,0.0015,1.0,0.9998,1.0,0.9735,0.0,0.3248,0.0,0.0002,1.0,1.0,1.0,0.9953,0.0,0.0056,0.0,0.0,1.0,1.0,1.0,0.9988,0.0,0.1358,0.0,0.0,1.0,0.9999,1.0,0.9997,0.0,0.0151,0.0,0.0,1.0,0.9998,1.0,0.9998,0.0,0.0128,0.0,0.0,1.0,0.9988,1.0,0.9998,0.0,0.001,0.0,0.0,1.0,0.9959,1.0,0.9998,0.0,0.0005,0.0,0.0,0.0,0.3872,1.0,0.9997,0.0,0.0037,0.0,0.0,0.0,0.0018,1.0,0.9995,0.0,0.0,0.0,0.0,0.0,0.0124,1.0,0.9994,0.0,0.0,0.0,0.0
TSEVO,LSTMFCN,1241,0,3,233.0132,0.9,0.9,8.225,35.4495,10.7761,0.2188,1.0,0.9999,1.0,0.9627,1.0,0.2188,0.0,0.0005,1.0,1.0,1.0,0.9696,0.0,0.1261,0.0,0.0007,1.0,1.0,1.0,0.9834,0.0,0.0033,0.0,0.0017,1.0,1.0,1.0,0.9888,0.0,0.0004,0.0,0.0033,1.0,1.0,1.0,0.9923,0.0,0.0004,0.0,0.003,1.0,0.9998,1.0,0.9934,0.0,0.0008,0.0,0.0021,1.0,0.9999,1.0,0.9937,0.0,0.0014,0.0,0.0016,1.0,0.982,1.0,0.994,0.0,0.0004,0.0,0.0011,0.0,0.0597,1.0,0.996,0.0,0.0,0.0,0.0005,0.0,0.0003,1.0,0.9977,0.0,0.0,0.0,0.0003,0.0,0.0359,1.0,0.9984,0.0,0.0,0.0,0.0001
TSEVO,LSTMFCN,300,0,2,219.9817,0.7214,0.5,4.7763,33.9772,8.2448,0.2079,1.0,0.9995,1.0,0.9425,1.0,0.2079,0.0,0.1142,1.0,0.9998,1.0,0.9832,0.0,0.1783,0.0,0.006,1.0,1.0,1.0,0.9927,0.0,0.0169,0.0,0.0004,1.0,1.0,1.0,0.994,0.0,0.0043,0.0,0.0001,1.0,1.0,1.0,0.996,0.0,0.0013,0.0,0.0001,1.0,0.9996,1.0,0.9971,0.0,0.0038,0.0,0.0001,1.0,0.9981,1.0,0.9978,0.0,0.0013,0.0,0.0,1.0,0.9759,1.0,0.9987,0.0,0.0035,0.0,0.0,0.0,0.4395,1.0,0.9992,0.0,0.0004,0.0,0.0,0.0,0.0159,1.0,0.9994,0.0,0.0002,0.0,0.0,0.0,0.0014,1.0,0.9995,0.0,0.0004,0.0,0.0
TSEVO,LSTMFCN,97,0,4,302.1768,0.6071,0.5,5.8001,45.0533,11.2226,0.2264,1.0,0.9997,1.0,0.9624,1.0,0.2264,0.0,0.001,1.0,0.9999,1.0,0.9842,0.0,0.1631,0.0,0.0013,1.0,1.0,1.0,0.9871,0.0,0.0277,0.0,0.0008,1.0,1.0,1.0,0.9834,0.0,0.1254,0.0,0.0008,1.0,1.0,1.0,0.9847,0.0,0.112,0.0,0.001,1.0,0.9997,1.0,0.9871,1.0,0.5672,0.0,0.0013,1.0,0.9998,1.0,0.9911,0.0,0.4041,0.0,0.0007,0.0,0.4922,1.0,0.9943,0.0,0.1326,0.0,0.0003,0.0,0.2446,1.0,0.9963,1.0,0.9968,0.0,0.0002,0.0,0.0239,1.0,0.9974,1.0,0.8915,0.0,0.0001,0.0,0.0077,1.0,0.998,1.0,0.9825,0.0,0.0001
TSEVO,LSTMFCN,2079,0,4,321.764,0.6786,0.2,5.8836,33.5538,10.0283,0.2092,1.0,0.9999,1.0,0.9655,1.0,0.2092,0.0,0.002,1.0,1.0,1.0,0.9695,0.0,0.2002,0.0,0.0016,1.0,1.0,1.0,0.983,0.0,0.0051,0.0,0.001,1.0,1.0,1.0,0.9895,0.0,0.062,0.0,0.0007,1.0,1.0,1.0,0.9903,0.0,0.0625,0.0,0.0007,1.0,0.9986,1.0,0.9908,0.0,0.2661,0.0,0.0009,1.0,0.9998,1.0,0.9904,1.0,0.6176,0.0,0.0011,1.0,0.9268,1.0,0.9914,0.0,0.1989,0.0,0.0011,1.0,0.5189,1.0,0.9935,1.0,0.9879,0.0,0.0009,0.0,0.005,1.0,0.9954,1.0,0.9879,0.0,0.0005,0.0,0.0031,1.0,0.9967,1.0,0.9999,0.0,0.0003
TSEVO,LSTMFCN,3955,1,3,316.9345,0.5643,0.2,3.53,30.221,4.7778,0.2148,1.0,0.9486,0.0,0.0056,1.0,0.2148,0.0,0.0042,1.0,0.8414,0.0,0.0006,0.0,0.2575,0.0,0.0003,1.0,0.9177,0.0,0.0002,0.0,0.075,0.0,0.0001,1.0,0.7282,0.0,0.0,0.0,0.0332,0.0,0.0,1.0,0.7432,0.0,0.0,0.0,0.0303,0.0,0.0,1.0,0.8097,0.0,0.0,0.0,0.0126,0.0,0.0,1.0,0.9458,0.0,0.0,0.0,0.0219,0.0,0.0,1.0,0.7126,0.0,0.0,0.0,0.0004,0.0,0.0,1.0,0.9588,0.0,0.0001,0.0,0.0004,0.0,0.0,0.0,0.1666,0.0,0.0001,0.0,0.0,0.0,0.0,0.0,0.055,0.0,0.0001,0.0,0.0,0.0,0.0
TSEVO,LSTMFCN,917,0,4,312.0507,0.6786,0.4,4.1373,36.4074,7.8583,0.2057,1.0,0.9979,1.0,0.9531,1.0,0.2057,0.0,0.0008,1.0,0.9985,1.0,0.9374,0.0,0.0861,0.0,0.0006,1.0,1.0,1.0,0.9885,0.0,0.0161,0.0,0.0002,1.0,1.0,1.0,0.9979,0.0,0.0087,0.0,0.0001,1.0,1.0,1.0,0.9992,0.0,0.0121,0.0,0.0001,1.0,0.9996,1.0,0.9993,0.0,0.1113,0.0,0.0002,1.0,0.971,1.0,0.9993,1.0,0.624,0.0,0.0003,0.0,0.0282,1.0,0.9992,0.0,0.1479,0.0,0.0005,1.0,0.5492,1.0,0.999,1.0,0.9239,0.0,0.0009,0.0,0.0002,1.0,0.9991,1.0,0.7662,0.0,0.0012,0.0,0.0027,1.0,0.9992,1.0,0.9894,0.0,0.0013
TSEVO,LSTMFCN,2445,0,1,239.3704,0.6714,0.3,5.1649,34.8118,8.0719,0.2099,1.0,0.9997,1.0,0.8024,1.0,0.2099,0.0,0.0271,1.0,0.9999,1.0,0.9021,0.0,0.1125,0.0,0.0008,1.0,1.0,1.0,0.9645,0.0,0.0034,0.0,0.0004,1.0,1.0,1.0,0.9136,0.0,0.0436,0.0,0.0003,1.0,0.9999,1.0,0.8974,0.0,0.0783,0.0,0.0002,1.0,0.9999,1.0,0.9229,0.0,0.398,0.0,0.0002,1.0,0.9906,1.0,0.9538,0.0,0.0384,0.0,0.0001,1.0,0.6627,1.0,0.9794,0.0,0.0681,0.0,0.0001,0.0,0.4979,1.0,0.991,0.0,0.0346,0.0,0.0001,0.0,0.1622,1.0,0.9944,0.0,0.2087,0.0,0.0001,0.0,0.0002,1.0,0.9958,0.0,0.0008,0.0,0.0001
TSEVO,LSTMFCN,3224,1,3,202.5501,0.7357,0.4,2.2247,17.3159,3.2235,0.257,1.0,0.8196,0.0,0.0002,1.0,0.257,0.0,0.0008,1.0,0.8725,0.0,0.0003,0.0,0.2194,0.0,0.0,1.0,0.8498,0.0,0.0005,0.0,0.0462,0.0,0.0,1.0,0.92,0.0,0.0002,0.0,0.0119,0.0,0.0,1.0,0.6153,0.0,0.0002,0.0,0.0114,0.0,0.0,1.0,0.7805,0.0,0.0002,0.0,0.0492,0.0,0.0,1.0,0.9539,0.0,0.0003,0.0,0.001,0.0,0.0,0.0,0.3573,0.0,0.0003,0.0,0.0009,0.0,0.0,1.0,0.7683,0.0,0.0003,0.0,0.0,0.0,0.0,1.0,0.9375,0.0,0.0003,0.0,0.0,0.0,0.0,0.0,0.2611,0.0,0.0002,0.0,0.0002,0.0,0.0
TSEVO,LSTMFCN,249,0,2,212.0917,0.6357,0.4,5.3217,38.1574,9.6553,0.2094,1.0,0.9999,1.0,0.9713,1.0,0.2094,0.0,0.2023,1.0,1.0,1.0,0.9711,0.0,0.1155,0.0,0.0166,1.0,1.0,1.0,0.978,0.0,0.0162,0.0,0.0017,1.0,1.0,1.0,0.9893,0.0,0.0039,0.0,0.0004,1.0,0.9999,1.0,0.9931,0.0,0.0022,0.0,0.0003,1.0,0.9999,1.0,0.9951,0.0,0.0015,0.0,0.0003,1.0,0.9999,1.0,0.9958,0.0,0.0032,0.0,0.0002,1.0,0.8987,1.0,0.9961,0.0,0.0011,0.0,0.0001,0.0,0.0245,1.0,0.9969,0.0,0.0005,0.0,0.0,0.0,0.0564,1.0,0.9976,0.0,0.0003,0.0,0.0,0.0,0.0007,1.0,0.9983,0.0,0.0001,0.0,0.0
TSEVO,LSTMFCN,2206,0,3,201.852,0.5643,0.4,4.2448,33.8582,8.3694,0.2101,1.0,0.9997,1.0,0.9601,1.0,0.2101,0.0,0.0002,1.0,0.9999,1.0,0.9828,0.0,0.0741,0.0,0.0002,1.0,1.0,1.0,0.9973,0.0,0.0089,0.0,0.0002,1.0,1.0,1.0,0.999,0.0,0.0033,0.0,0.0003,1.0,0.9995,1.0,0.9992,0.0,0.0037,0.0,0.0005,1.0,0.9964,1.0,0.9991,0.0,0.0027,0.0,0.0004,1.0,0.9885,1.0,0.9991,0.0,0.0009,0.0,0.0002,1.0,0.9897,1.0,0.9992,0.0,0.0006,0.0,0.0001,0.0,0.249,1.0,0.9993,0.0,0.0,0.0,0.0,0.0,0.2467,1.0,0.9992,0.0,0.0,0.0,0.0,0.0,0.0006,1.0,0.9989,0.0,0.0,0.0,0.0
TSEVO,LSTMFCN,1065,0,1,213.3085,0.7357,0.6,2.6638,27.6022,6.2076,0.2145,1.0,0.9995,1.0,0.9915,1.0,0.2145,0.0,0.0061,1.0,0.9998,1.0,0.9762,0.0,0.014,0.0,0.0002,1.0,1.0,1.0,0.9672,0.0,0.0027,0.0,0.0,1.0,0.9998,1.0,0.9811,0.0,0.0026,0.0,0.0,1.0,1.0,1.0,0.992,0.0,0.0062,0.0,0.0,1.0,0.9977,1.0,0.9967,0.0,0.089,0.0,0.0,1.0,0.9891,1.0,0.9984,0.0,0.0042,0.0,0.0,1.0,0.7924,1.0,0.9992,0.0,0.0048,0.0,0.0,0.0,0.0949,1.0,0.9995,0.0,0.0046,0.0,0.0,0.0,0.0001,1.0,0.9996,0.0,0.0002,0.0,0.0,0.0,0.0005,1.0,0.9997,0.0,0.0021,0.0,0.0
TSEVO,LSTMFCN,29,0,3,215.2797,0.8143,0.6,7.0354,32.3313,10.3756,0.2064,1.0,0.9999,1.0,0.9667,1.0,0.2064,0.0,0.0005,1.0,1.0,1.0,0.9685,0.0,0.1327,0.0,0.0005,1.0,1.0,1.0,0.9808,0.0,0.0053,0.0,0.0009,1.0,1.0,1.0,0.9916,0.0,0.0008,0.0,0.0013,1.0,1.0,1.0,0.9949,0.0,0.0008,0.0,0.0012,1.0,1.0,1.0,0.9961,0.0,0.0006,0.0,0.0008,1.0,0.9655,1.0,0.996,0.0,0.0003,0.0,0.0005,1.0,0.8412,1.0,0.9962,0.0,0.0,0.0,0.0004,1.0,0.7823,1.0,0.9974,0.0,0.0,0.0,0.0004,0.0,0.0054,1.0,0.9984,0.0,0.0,0.0,0.0003,0.0,0.0006,1.0,0.9991,0.0,0.0,0.0,0.0003
TSEVO,LSTMFCN,4179,1,3,220.0168,0.8643,0.7,7.225,40.1698,11.3385,0.2112,1.0,0.9949,0.0,0.0159,1.0,0.2112,0.0,0.0013,1.0,0.9054,0.0,0.0343,0.0,0.1281,0.0,0.0056,0.0,0.3214,0.0,0.0833,0.0,0.021,0.0,0.0585,0.0,0.2486,0.0,0.0633,0.0,0.0001,0.0,0.0792,0.0,0.0168,0.0,0.029,0.0,0.0004,0.0,0.0196,0.0,0.0602,0.0,0.0093,0.0,0.0001,0.0,0.0017,0.0,0.0086,0.0,0.0029,0.0,0.0,0.0,0.0001,1.0,0.8882,0.0,0.0017,0.0,0.0008,0.0,0.0,0.0,0.0095,0.0,0.0017,0.0,0.0003,0.0,0.0,0.0,0.1468,0.0,0.0019,0.0,0.0,0.0,0.0,0.0,0.0478,0.0,0.002,0.0,0.0,0.0,0.0
TSEVO,LSTMFCN,3355,1,0,219.9887,0.8714,0.7,7.4388,26.3471,10.3134,0.2307,1.0,0.6093,0.0,0.0003,1.0,0.2307,1.0,0.9742,0.0,0.2097,0.0,0.0,1.0,0.647,1.0,0.9287,0.0,0.0067,0.0,0.0,1.0,0.911,1.0,0.8983,0.0,0.0075,0.0,0.0,1.0,0.9857,1.0,0.9172,0.0,0.0089,0.0,0.0,1.0,0.9529,1.0,0.9732,0.0,0.0006,0.0,0.0,0.0,0.4678,1.0,0.9914,0.0,0.0179,0.0,0.0,0.0,0.2005,1.0,0.9956,0.0,0.0147,0.0,0.0,0.0,0.0505,1.0,0.997,0.0,0.0151,0.0,0.0,0.0,0.0089,1.0,0.9973,0.0,0.0148,0.0,0.0,0.0,0.0,1.0,0.997,0.0,0.0031,0.0,0.0,0.0,0.0251,1.0,0.997
TSEVO,LSTMFCN,3231,1,3,216.9134,0.6429,0.3,4.9139,31.6937,6.5266,0.2118,1.0,0.9644,0.0,0.0302,1.0,0.2118,0.0,0.0099,1.0,0.8991,0.0,0.0384,0.0,0.174,0.0,0.0024,1.0,0.9003,0.0,0.0096,0.0,0.0746,0.0,0.0004,1.0,0.8062,0.0,0.0025,0.0,0.063,0.0,0.0001,1.0,0.9494,0.0,0.0017,0.0,0.0645,0.0,0.0,1.0,0.9305,0.0,0.0018,0.0,0.0166,0.0,0.0,1.0,0.9912,0.0,0.0018,0.0,0.0164,0.0,0.0,1.0,0.9784,0.0,0.0025,0.0,0.0005,0.0,0.0,1.0,0.6474,0.0,0.0036,0.0,0.0014,0.0,0.0,0.0,0.144,0.0,0.0052,0.0,0.0,0.0,0.0,0.0,0.0931,0.0,0.0066,0.0,0.0001,0.0,0.0
TSEVO,LSTMFCN,401,0,3,348.614,0.6357,0.5,6.7373,52.0919,9.992,0.2097,1.0,0.9708,1.0,0.9449,1.0,0.2097,0.0,0.0022,1.0,0.9949,1.0,0.8921,0.0,0.1614,0.0,0.001,1.0,0.9989,1.0,0.9474,0.0,0.0427,0.0,0.0007,1.0,0.9992,1.0,0.9931,0.0,0.0523,0.0,0.0001,1.0,0.9971,1.0,0.9984,0.0,0.0259,0.0,0.0001,1.0,0.9994,1.0,0.999,0.0,0.0406,0.0,0.0,1.0,0.9385,1.0,0.999,0.0,0.0108,0.0,0.0,0.0,0.0879,1.0,0.9989,0.0,0.0001,0.0,0.0001,0.0,0.0208,1.0,0.999,0.0,0.0046,0.0,0.0001,0.0,0.0004,1.0,0.9992,0.0,0.0,0.0,0.0001,0.0,0.0086,1.0,0.9993,0.0,0.0,0.0,0.0001
TSEVO,LSTMFCN,1283,0,2,328.007,0.4714,0.2,5.0083,70.6064,11.0814,0.2074,1.0,0.9998,1.0,0.9954,1.0,0.2074,0.0,0.0032,1.0,1.0,1.0,0.9942,0.0,0.1459,0.0,0.0003,1.0,1.0,1.0,0.9983,0.0,0.0997,0.0,0.0,1.0,1.0,1.0,0.9995,0.0,0.0167,0.0,0.0,1.0,1.0,1.0,0.9998,0.0,0.0194,0.0,0.0,1.0,0.9999,1.0,0.9998,0.0,0.0022,0.0,0.0,1.0,0.9911,1.0,0.9998,0.0,0.0028,0.0,0.0,1.0,0.9116,1.0,0.9998,0.0,0.0157,0.0,0.0,0.0,0.3091,1.0,0.9998,0.0,0.001,0.0,0.0,0.0,0.046,1.0,0.9998,0.0,0.0001,0.0,0.0,0.0,0.0,1.0,0.9998,0.0,0.0,0.0,0.0
TSEVO,LSTMFCN,208,0,2,317.5481,0.8357,0.3,4.5699,28.6702,8.3787,0.2076,1.0,0.998,1.0,0.9312,1.0,0.2076,0.0,0.0929,1.0,0.9992,1.0,0.9806,0.0,0.1942,0.0,0.0058,1.0,0.9999,1.0,0.9873,0.0,0.0254,0.0,0.0008,1.0,1.0,1.0,0.9851,0.0,0.002,0.0,0.0001,1.0,1.0,1.0,0.9906,0.0,0.001,0.0,0.0,1.0,0.9999,1.0,0.9959,0.0,0.0075,0.0,0.0,1.0,0.9569,1.0,0.9978,0.0,0.0041,0.0,0.0,1.0,0.9264,1.0,0.9987,0.0,0.0006,0.0,0.0,0.0,0.108,1.0,0.9992,0.0,0.0001,0.0,0.0,0.0,0.0888,1.0,0.9994,0.0,0.0,0.0,0.0,0.0,0.0076,1.0,0.9994,0.0,0.0006,0.0,0.0
TSEVO,LSTMFCN,4181,1,2,307.6712,0.75,0.4,8.2622,39.8376,10.7843,0.2042,1.0,0.9963,0.0,0.0144,1.0,0.2042,1.0,0.7368,1.0,0.9312,0.0,0.0261,0.0,0.1009,0.0,0.2899,1.0,0.6302,0.0,0.0489,0.0,0.0003,0.0,0.0304,0.0,0.0262,0.0,0.0359,0.0,0.0002,0.0,0.0017,0.0,0.0109,0.0,0.0126,0.0,0.0001,0.0,0.0001,0.0,0.1874,0.0,0.0028,0.0,0.0002,0.0,0.0,1.0,0.5081,0.0,0.0012,0.0,0.0051,0.0,0.0,1.0,0.9819,0.0,0.0008,0.0,0.0013,0.0,0.0,1.0,0.9042,0.0,0.0009,0.0,0.0002,0.0,0.0,0.0,0.4308,0.0,0.0012,0.0,0.0001,0.0,0.0,0.0,0.3697,0.0,0.0015,0.0,0.0001,0.0,0.0
TSEVO,LSTMFCN,310,0,3,214.236,0.7786,0.5,4.2604,29.7201,8.0999,0.207,1.0,0.9997,1.0,0.9448,1.0,0.207,0.0,0.0009,1.0,0.9999,1.0,0.973,0.0,0.1979,0.0,0.0005,1.0,1.0,1.0,0.9929,0.0,0.0301,0.0,0.0002,1.0,1.0,1.0,0.9966,0.0,0.0094,0.0,0.0001,1.0,0.9997,1.0,0.9959,0.0,0.0005,0.0,0.0002,1.0,0.9997,1.0,0.9955,0.0,0.0043,0.0,0.0002,1.0,0.9936,1.0,0.9972,0.0,0.0007,0.0,0.0001,1.0,0.6933,1.0,0.9988,0.0,0.0004,0.0,0.0001,0.0,0.1136,1.0,0.9993,0.0,0.0001,0.0,0.0,0.0,0.0005,1.0,0.9995,0.0,0.0,0.0,0.0,0.0,0.0002,1.0,0.9995,0.0,0.0,0.0,0.0
TSEVO,LSTMFCN,2704,1,3,226.9414,0.4429,0.1,5.3658,67.3167,10.7555,0.2493,1.0,0.9708,0.0,0.0039,1.0,0.2493,0.0,0.0012,1.0,0.9685,0.0,0.0112,0.0,0.0816,0.0,0.0004,1.0,0.9936,0.0,0.0067,0.0,0.0035,0.0,0.0003,1.0,0.9931,0.0,0.0022,0.0,0.0004,0.0,0.0002,1.0,0.9926,0.0,0.002,0.0,0.0027,0.0,0.0002,1.0,0.9642,0.0,0.0026,0.0,0.0011,0.0,0.0003,1.0,0.7162,0.0,0.005,0.0,0.0003,0.0,0.0004,1.0,0.5531,0.0,0.0078,0.0,0.0,0.0,0.0007,1.0,0.6834,0.0,0.009,0.0,0.0,0.0,0.0008,0.0,0.0354,0.0,0.0086,0.0,0.0,0.0,0.0006,0.0,0.3864,0.0,0.0082,0.0,0.0,0.0,0.0005
TSEVO,LSTMFCN,2631,1,3,219.6425,0.65,0.4,5.7053,42.7504,7.9125,0.2145,1.0,0.8419,0.0,0.0008,1.0,0.2145,0.0,0.0003,1.0,0.8489,0.0,0.0013,0.0,0.2378,0.0,0.0001,1.0,0.9747,0.0,0.004,0.0,0.1488,0.0,0.0001,1.0,0.8884,0.0,0.0046,0.0,0.0904,0.0,0.0,1.0,0.7774,0.0,0.0046,0.0,0.1022,0.0,0.0,1.0,0.9827,0.0,0.0038,0.0,0.0047,0.0,0.0,1.0,0.9862,0.0,0.004,0.0,0.0062,0.0,0.0,1.0,0.9124,0.0,0.0036,0.0,0.0011,0.0,0.0,1.0,0.9226,0.0,0.0026,0.0,0.0001,0.0,0.0,1.0,0.9368,0.0,0.0023,0.0,0.0,0.0,0.0,1.0,0.9522,0.0,0.0021,0.0,0.0,0.0,0.0
TSEVO,LSTMFCN,916,0,3,212.9029,0.4929,0.1,7.5669,62.1304,12.0153,0.2084,1.0,0.9988,1.0,0.9762,1.0,0.2084,0.0,0.0005,1.0,0.9997,1.0,0.9724,0.0,0.1106,0.0,0.0001,1.0,1.0,1.0,0.9933,0.0,0.0157,0.0,0.0,1.0,0.9999,1.0,0.9973,0.0,0.0584,0.0,0.0,1.0,1.0,1.0,0.9974,0.0,0.0338,0.0,0.0,1.0,0.9997,1.0,0.9967,0.0,0.0234,0.0,0.0,1.0,0.9951,1.0,0.996,0.0,0.01,0.0,0.0,1.0,0.7394,1.0,0.9946,0.0,0.0043,0.0,0.0,1.0,0.8637,1.0,0.9937,0.0,0.0001,0.0,0.0,0.0,0.0829,1.0,0.9937,0.0,0.0,0.0,0.0,0.0,0.0043,1.0,0.9943,0.0,0.0,0.0,0.0
TSEVO,LSTMFCN,220,0,4,242.4185,0.7857,0.4,4.8702,29.7389,8.2202,0.2095,1.0,0.9991,1.0,0.9411,1.0,0.2095,0.0,0.0044,1.0,0.9998,1.0,0.9752,0.0,0.2283,0.0,0.0032,1.0,1.0,1.0,0.9625,0.0,0.1616,0.0,0.002,1.0,1.0,1.0,0.9226,0.0,0.066,0.0,0.0014,1.0,1.0,1.0,0.951,0.0,0.1401,0.0,0.0013,1.0,0.997,1.0,0.9828,0.0,0.2234,0.0,0.0016,1.0,0.9736,1.0,0.9931,1.0,0.4077,0.0,0.0022,0.0,0.0245,1.0,0.997,1.0,0.9442,0.0,0.0017,0.0,0.0365,1.0,0.9987,0.0,0.0368,0.0,0.0009,0.0,0.0002,1.0,0.9992,1.0,0.9679,0.0,0.0005,0.0,0.0082,1.0,0.9994,1.0,0.9984,0.0,0.0004
TSEVO,LSTMFCN,3294,1,3,343.4141,0.4643,0.2,3.8463,61.6768,8.9673,0.2129,1.0,0.9661,0.0,0.0727,1.0,0.2129,0.0,0.0021,1.0,0.9417,0.0,0.0079,0.0,0.1729,0.0,0.0008,1.0,0.9208,0.0,0.0007,0.0,0.0033,0.0,0.0005,1.0,0.8904,0.0,0.0001,0.0,0.0054,0.0,0.0004,1.0,0.774,0.0,0.0001,0.0,0.005,0.0,0.0004,1.0,0.8808,0.0,0.0001,0.0,0.0008,0.0,0.0003,1.0,0.8791,0.0,0.0001,0.0,0.0005,0.0,0.0003,1.0,0.9925,0.0,0.0001,0.0,0.0,0.0,0.0002,0.0,0.1227,0.0,0.0003,0.0,0.0,0.0,0.0001,0.0,0.0601,0.0,0.0005,0.0,0.0,0.0,0.0001,0.0,0.4515,0.0,0.0006,0.0,0.0,0.0,0.0001
TSEVO,LSTMFCN,1860,0,4,357.8034,0.6857,0.4,7.4469,72.9325,15.6548,0.2042,1.0,0.9999,1.0,0.9962,1.0,0.2042,0.0,0.0015,1.0,0.9999,1.0,0.9946,0.0,0.1621,0.0,0.0009,1.0,1.0,1.0,0.9966,0.0,0.0826,0.0,0.0005,1.0,1.0,1.0,0.9985,0.0,0.2246,0.0,0.0003,1.0,1.0,1.0,0.9988,0.0,0.1756,0.0,0.0002,1.0,0.9915,1.0,0.999,1.0,0.5483,0.0,0.0003,1.0,0.9959,1.0,0.9991,0.0,0.4766,0.0,0.0003,1.0,0.911,1.0,0.9991,1.0,0.5319,0.0,0.0004,0.0,0.1002,1.0,0.9992,0.0,0.1475,0.0,0.0004,0.0,0.0851,1.0,0.9993,1.0,0.9749,0.0,0.0004,0.0,0.0027,1.0,0.9994,0.0,0.447,0.0,0.0004
TSEVO,LSTMFCN,4266,1,0,314.0784,0.6786,0.4,4.9807,49.8716,10.5536,0.2509,1.0,0.9958,0.0,0.0232,1.0,0.2509,1.0,0.9612,1.0,0.9312,0.0,0.0228,1.0,0.4936,1.0,0.9835,0.0,0.1107,0.0,0.0472,1.0,0.9949,1.0,0.9955,0.0,0.168,0.0,0.0282,1.0,0.9947,1.0,0.9975,0.0,0.0931,0.0,0.0076,1.0,0.9945,1.0,0.9988,1.0,0.5132,0.0,0.0014,1.0,0.9998,1.0,0.9993,0.0,0.1755,0.0,0.0006,1.0,0.837,1.0,0.9995,1.0,0.5612,0.0,0.0005,0.0,0.2185,1.0,0.9996,1.0,0.5498,0.0,0.0003,0.0,0.0114,1.0,0.9997,1.0,0.7705,0.0,0.0002,0.0,0.0006,1.0,0.9997,0.0,0.1199,0.0,0.0002,0.0,0.0,1.0,0.9997
TSEVO,LSTMFCN,4326,1,3,301.9224,0.6786,0.4,10.2456,54.4208,13.497,0.2436,1.0,0.9944,0.0,0.0018,1.0,0.2436,0.0,0.0021,1.0,0.9832,0.0,0.0002,0.0,0.2501,0.0,0.0003,1.0,0.9479,0.0,0.0,0.0,0.0023,0.0,0.0001,1.0,0.9938,0.0,0.0,0.0,0.0019,0.0,0.0,1.0,0.9245,0.0,0.0,0.0,0.0011,0.0,0.0,1.0,0.989,0.0,0.0,0.0,0.0004,0.0,0.0,1.0,0.9903,0.0,0.0,0.0,0.0001,0.0,0.0,1.0,0.7014,0.0,0.0,0.0,0.0008,0.0,0.0,1.0,0.9399,0.0,0.0,0.0,0.0001,0.0,0.0,1.0,0.9635,0.0,0.0,0.0,0.0,0.0,0.0,0.0,0.0043,0.0,0.0,0.0,0.0,0.0,0.0
TSEVO,LSTMFCN,4237,1,3,226.3568,0.7214,0.3,4.4526,37.0717,7.1248,0.2232,1.0,0.9096,0.0,0.0005,1.0,0.2232,0.0,0.0055,1.0,0.8529,0.0,0.0006,1.0,0.3053,0.0,0.0008,1.0,0.9114,0.0,0.001,0.0,0.0755,0.0,0.0001,1.0,0.9362,0.0,0.0005,0.0,0.0237,0.0,0.0,1.0,0.9656,0.0,0.0004,0.0,0.009,0.0,0.0,1.0,0.949,0.0,0.0005,0.0,0.039,0.0,0.0,1.0,0.9934,0.0,0.0007,0.0,0.0307,0.0,0.0,1.0,0.9285,0.0,0.0011,0.0,0.0203,0.0,0.0,1.0,0.9886,0.0,0.0021,0.0,0.0004,0.0,0.0,1.0,0.9489,0.0,0.0032,0.0,0.0,0.0,0.0,0.0,0.1221,0.0,0.0038,0.0,0.0,0.0,0.0
TSEVO,LSTMFCN,2096,0,4,243.8711,0.5643,0.3,3.6593,34.1759,6.0619,0.2224,1.0,0.9963,1.0,0.9115,1.0,0.2224,0.0,0.004,1.0,0.9971,1.0,0.9502,0.0,0.105,0.0,0.0029,1.0,0.9998,1.0,0.9886,0.0,0.0409,0.0,0.0014,1.0,0.9999,1.0,0.9939,0.0,0.0221,0.0,0.0014,1.0,0.9999,1.0,0.9958,0.0,0.3221,0.0,0.0011,1.0,0.9992,1.0,0.9973,0.0,0.196,0.0,0.0007,1.0,0.9998,1.0,0.9982,1.0,0.6893,0.0,0.0005,1.0,0.9532,1.0,0.9987,1.0,0.8112,0.0,0.0004,1.0,0.5204,1.0,0.9989,0.0,0.3919,0.0,0.0003,0.0,0.0071,1.0,0.999,1.0,0.9993,0.0,0.0003,0.0,0.0005,1.0,0.9992,1.0,0.9978,0.0,0.0002
TSEVO,LSTMFCN,1372,0,2,218.5665,0.4214,0.2,3.1478,34.9786,5.3074,0.2467,1.0,0.996,1.0,0.9374,1.0,0.2467,0.0,0.1789,1.0,0.9988,1.0,0.9424,0.0,0.1358,0.0,0.0098,1.0,1.0,1.0,0.961,0.0,0.0039,0.0,0.0009,1.0,1.0,1.0,0.9577,0.0,0.0005,0.0,0.0,1.0,1.0,1.0,0.9804,0.0,0.0002,0.0,0.0,1.0,0.9997,1.0,0.9937,0.0,0.0009,0.0,0.0,1.0,0.9223,1.0,0.9979,0.0,0.0001,0.0,0.0,1.0,0.9723,1.0,0.9991,0.0,0.0008,0.0,0.0,0.0,0.246,1.0,0.9995,0.0,0.0012,0.0,0.0,0.0,0.2038,1.0,0.9996,0.0,0.0006,0.0,0.0,0.0,0.0009,1.0,0.9996,0.0,0.0001,0.0,0.0
TSEVO,LSTMFCN,3973,1,3,256.8074,0.2571,0.1,4.3798,58.5929,7.4688,0.2055,1.0,0.9648,0.0,0.0011,1.0,0.2055,0.0,0.0008,1.0,0.9429,0.0,0.0018,0.0,0.171,0.0,0.0003,1.0,0.9596,0.0,0.0014,0.0,0.03,0.0,0.0001,1.0,0.924,0.0,0.0005,0.0,0.0089,0.0,0.0001,1.0,0.9578,0.0,0.0003,0.0,0.0021,0.0,0.0001,1.0,0.9399,0.0,0.0002,0.0,0.0017,0.0,0.0001,1.0,0.7226,0.0,0.0002,0.0,0.003,0.0,0.0001,1.0,0.5095,0.0,0.0003,0.0,0.0001,0.0,0.0001,0.0,0.2521,0.0,0.0005,0.0,0.0001,0.0,0.0,0.0,0.023,0.0,0.0006,0.0,0.0,0.0,0.0,1.0,0.7459,0.0,0.0008,0.0,0.0,0.0,0.0
TSEVO,LSTMFCN,4011,1,3,320.8633,0.7857,0.5,4.3961,25.2406,8.0382,0.334,1.0,0.926,0.0,0.0027,1.0,0.334,0.0,0.0169,1.0,0.6625,0.0,0.0,0.0,0.2069,0.0,0.001,0.0,0.0917,0.0,0.0,0.0,0.0021,0.0,0.0001,0.0,0.0072,0.0,0.0,0.0,0.0003,0.0,0.0001,0.0,0.002,0.0,0.0,0.0,0.0003,0.0,0.0,0.0,0.003,0.0,0.0,0.0,0.0005,0.0,0.0,1.0,0.6818,0.0,0.0,0.0,0.0003,0.0,0.0,0.0,0.2059,0.0,0.0,0.0,0.0006,0.0,0.0,0.0,0.167,0.0,0.0,0.0,0.0001,0.0,0.0,0.0,0.0211,0.0,0.0,0.0,0.0,0.0,0.0,0.0,0.0001,0.0,0.0,0.0,0.0,0.0,0.0
TSEVO,LSTMFCN,2119,0,2,344.6099,0.8,0.4,5.5849,32.3146,8.4946,0.2043,1.0,0.9999,1.0,0.9728,1.0,0.2043,0.0,0.0178,1.0,1.0,1.0,0.9866,0.0,0.1012,0.0,0.0029,1.0,1.0,1.0,0.9923,0.0,0.0145,0.0,0.0007,1.0,1.0,1.0,0.9895,0.0,0.0146,0.0,0.0003,1.0,1.0,1.0,0.9837,0.0,0.0013,0.0,0.0002,1.0,0.9999,1.0,0.9848,0.0,0.0025,0.0,0.0001,1.0,0.9618,1.0,0.9924,0.0,0.0009,0.0,0.0001,1.0,0.9558,1.0,0.996,0.0,0.0007,0.0,0.0001,1.0,0.6734,1.0,0.998,0.0,0.0002,0.0,0.0,0.0,0.0269,1.0,0.9991,0.0,0.0,0.0,0.0,0.0,0.0052,1.0,0.9994,0.0,0.0,0.0,0.0
TSEVO,LSTMFCN,2357,0,3,359.3632,0.5429,0.5,4.7992,51.6713,10.2833,0.2061,1.0,0.9972,1.0,0.889,1.0,0.2061,0.0,0.001,1.0,0.9988,1.0,0.9664,0.0,0.1791,0.0,0.0003,1.0,0.9999,1.0,0.9859,0.0,0.1376,0.0,0.0002,1.0,0.9999,1.0,0.9898,0.0,0.0306,0.0,0.0001,1.0,1.0,1.0,0.9939,0.0,0.0296,0.0,0.0,1.0,1.0,1.0,0.9968,0.0,0.0227,0.0,0.0,1.0,0.9961,1.0,0.998,0.0,0.0036,0.0,0.0,1.0,0.7206,1.0,0.9989,0.0,0.0014,0.0,0.0,0.0,0.2195,1.0,0.9993,0.0,0.0001,0.0,0.0,0.0,0.023,1.0,0.9995,0.0,0.0004,0.0,0.0,0.0,0.0041,1.0,0.9996,0.0,0.0,0.0,0.0
TSEVO,LSTMFCN,3911,1,3,301.9137,0.5071,0.1,5.1358,38.921,6.3249,0.2142,1.0,0.9446,0.0,0.0261,1.0,0.2142,0.0,0.0002,1.0,0.8559,0.0,0.0036,0.0,0.2291,0.0,0.0001,1.0,0.9267,0.0,0.0005,0.0,0.1445,0.0,0.0,1.0,0.8969,0.0,0.0001,0.0,0.1132,0.0,0.0,1.0,0.8009,0.0,0.0001,0.0,0.0109,0.0,0.0,1.0,0.8971,0.0,0.0001,0.0,0.0149,0.0,0.0,1.0,0.9818,0.0,0.0001,0.0,0.0127,0.0,0.0,1.0,0.9716,0.0,0.0002,0.0,0.002,0.0,0.0,0.0,0.4211,0.0,0.0003,0.0,0.0001,0.0,0.0,1.0,0.5823,0.0,0.0004,0.0,0.0,0.0,0.0,0.0,0.2281,0.0,0.0005,0.0,0.0,0.0,0.0
TSEVO,LSTMFCN,4016,1,0,222.5987,0.8286,0.6,9.0145,49.977,12.1188,0.2111,1.0,0.9965,0.0,0.007,1.0,0.2111,0.0,0.2837,1.0,0.9321,0.0,0.0159,1.0,0.5093,1.0,0.5176,1.0,0.8565,0.0,0.0532,1.0,0.9887,1.0,0.8573,0.0,0.0053,0.0,0.0448,1.0,0.9966,1.0,0.938,0.0,0.0173,0.0,0.0241,1.0,0.9854,1.0,0.9616,0.0,0.1647,0.0,0.009,1.0,0.534,1.0,0.9789,1.0,0.8834,0.0,0.0038,1.0,0.6644,1.0,0.9881,1.0,0.6919,0.0,0.0024,1.0,0.8172,1.0,0.9923,1.0,0.5145,0.0,0.002,0.0,0.0014,1.0,0.9942,1.0,0.506,0.0,0.0017,0.0,0.0079,1.0,0.9952,1.0,0.6404,0.0,0.0015,0.0,0.0006,1.0,0.9957
TSEVO,LSTMFCN,1132,0,4,217.1183,0.6929,0.3,4.4412,32.5801,8.5821,0.2046,1.0,0.9988,1.0,0.9544,1.0,0.2046,0.0,0.0006,1.0,0.9995,1.0,0.9673,0.0,0.1343,0.0,0.0007,1.0,1.0,1.0,0.9956,0.0,0.0191,0.0,0.0005,1.0,1.0,1.0,0.9988,0.0,0.1127,0.0,0.0007,1.0,0.9999,1.0,0.9994,0.0,0.0209,0.0,0.0008,1.0,0.9971,1.0,0.9996,0.0,0.3444,0.0,0.0011,1.0,0.9938,1.0,0.9997,0.0,0.3143,0.0,0.0011,1.0,0.7695,1.0,0.9995,1.0,0.482,0.0,0.0008,1.0,0.969,1.0,0.9992,1.0,0.9368,0.0,0.0007,0.0,0.0095,1.0,0.999,1.0,0.9804,0.0,0.0005,0.0,0.0005,1.0,0.9988,1.0,0.9979,0.0,0.0004
TSEVO,LSTMFCN,4471,3,1,217.8856,0.8143,0.3,5.2478,26.4809,6.4784,0.2126,1.0,0.5849,0.0,0.2626,1.0,0.2126,0.0,0.0003,1.0,0.8568,0.0,0.1686,0.0,0.0175,0.0,0.0001,1.0,0.7751,0.0,0.0615,0.0,0.001,0.0,0.0,0.0,0.0009,0.0,0.0255,0.0,0.0004,0.0,0.0,0.0,0.0005,0.0,0.0139,0.0,0.0006,0.0,0.0,0.0,0.0003,0.0,0.0055,0.0,0.0068,0.0,0.0,0.0,0.0003,0.0,0.0025,0.0,0.057,0.0,0.0,0.0,0.0004,0.0,0.0024,0.0,0.0176,0.0,0.0,0.0,0.0002,0.0,0.0022,0.0,0.0014,0.0,0.0,0.0,0.0,0.0,0.002,0.0,0.0,0.0,0.0,0.0,0.0,0.0,0.0014,0.0,0.002,0.0,0.0001
TSEVO,LSTMFCN,1800,0,2,224.0852,0.6,0.5,7.361,39.7126,10.1639,0.2075,1.0,0.9999,1.0,0.9658,1.0,0.2075,0.0,0.08,1.0,1.0,1.0,0.9804,0.0,0.2138,0.0,0.0266,1.0,1.0,1.0,0.9954,0.0,0.011,0.0,0.0052,1.0,1.0,1.0,0.9982,0.0,0.0011,0.0,0.0009,1.0,1.0,1.0,0.9983,0.0,0.0025,0.0,0.0003,1.0,0.9999,1.0,0.998,0.0,0.0005,0.0,0.0001,1.0,0.9994,1.0,0.9981,0.0,0.0026,0.0,0.0001,1.0,0.9709,1.0,0.9987,0.0,0.0018,0.0,0.0,0.0,0.0139,1.0,0.999,0.0,0.0018,0.0,0.0,0.0,0.0126,1.0,0.9992,0.0,0.0001,0.0,0.0,0.0,0.0001,1.0,0.9994,0.0,0.0,0.0,0.0
TSEVO,LSTMFCN,3222,1,3,219.2177,0.6286,0.3,2.259,50.1005,9.9411,0.223,1.0,0.9534,0.0,0.0082,1.0,0.223,0.0,0.0001,1.0,0.8832,0.0,0.005,0.0,0.046,0.0,0.0001,0.0,0.114,0.0,0.0013,0.0,0.0034,0.0,0.0004,0.0,0.0184,0.0,0.0005,0.0,0.0001,0.0,0.0011,0.0,0.052,0.0,0.0002,0.0,0.0002,0.0,0.0012,0.0,0.0042,0.0,0.0001,0.0,0.0009,0.0,0.0006,0.0,0.0081,0.0,0.0,0.0,0.0,0.0,0.0002,0.0,0.0032,0.0,0.0,0.0,0.0003,0.0,0.0,0.0,0.0003,0.0,0.0,0.0,0.0,0.0,0.0,0.0,0.0012,0.0,0.0,0.0,0.0,0.0,0.0,0.0,0.0001,0.0,0.0,0.0,0.0,0.0,0.0
TSEVO,LSTMFCN,1078,0,2,208.1215,0.7357,0.6,5.9332,38.1596,9.8816,0.2442,1.0,0.9991,1.0,0.9063,1.0,0.2442,0.0,0.1371,1.0,0.9998,1.0,0.9251,0.0,0.1599,0.0,0.0161,1.0,1.0,1.0,0.9693,0.0,0.0195,0.0,0.001,1.0,1.0,1.0,0.9878,0.0,0.0029,0.0,0.0002,1.0,1.0,1.0,0.9946,0.0,0.0044,0.0,0.0001,1.0,0.9999,1.0,0.997,0.0,0.0101,0.0,0.0001,1.0,0.9932,1.0,0.9978,0.0,0.004,0.0,0.0,1.0,0.9505,1.0,0.9982,0.0,0.0006,0.0,0.0,1.0,0.9666,1.0,0.9988,0.0,0.0063,0.0,0.0,0.0,0.0011,1.0,0.9992,0.0,0.0009,0.0,0.0,0.0,0.0017,1.0,0.9995,0.0,0.001,0.0,0.0
TSEVO,LSTMFCN,4082,1,4,224.7406,0.5857,0.4,6.2528,39.5022,8.2943,0.2634,1.0,0.9934,0.0,0.0966,1.0,0.2634,0.0,0.0003,1.0,0.961,0.0,0.0063,0.0,0.1544,0.0,0.0003,1.0,0.9316,0.0,0.0003,0.0,0.0024,0.0,0.0002,1.0,0.9452,0.0,0.0,0.0,0.0127,0.0,0.0002,1.0,0.9874,0.0,0.0,0.0,0.0968,0.0,0.0001,1.0,0.9486,0.0,0.0,0.0,0.0109,0.0,0.0001,1.0,0.9757,0.0,0.0,0.0,0.2582,0.0,0.0001,1.0,0.914,0.0,0.0,0.0,0.1716,0.0,0.0001,1.0,0.6402,0.0,0.0,1.0,0.8895,0.0,0.0002,1.0,0.565,0.0,0.0,1.0,0.9936,0.0,0.0003,0.0,0.1848,0.0,0.0,1.0,0.9999,0.0,0.0004
TSEVO,LSTMFCN,3969,1,3,227.0719,0.8857,0.4,3.452,21.9572,8.0268,0.3338,1.0,0.953,0.0,0.0132,1.0,0.3338,0.0,0.0084,1.0,0.8365,0.0,0.0006,0.0,0.1189,0.0,0.0007,1.0,0.9398,0.0,0.0002,0.0,0.0021,0.0,0.0001,1.0,0.8905,0.0,0.0001,0.0,0.0008,0.0,0.0,1.0,0.8956,0.0,0.0001,0.0,0.0001,0.0,0.0,1.0,0.8937,0.0,0.0001,0.0,0.0001,0.0,0.0,1.0,0.9233,0.0,0.0002,0.0,0.0017,0.0,0.0,1.0,0.9796,0.0,0.0003,0.0,0.0001,0.0,0.0,1.0,0.9434,0.0,0.0004,0.0,0.0,0.0,0.0,1.0,0.9434,0.0,0.0006,0.0,0.0,0.0,0.0,0.0,0.0086,0.0,0.0006,0.0,0.0,0.0,0.0
TSEVO,LSTMFCN,3016,1,0,221.0809,0.6429,0.2,5.3813,33.0594,7.3437,0.2483,1.0,0.9533,0.0,0.0027,1.0,0.2483,1.0,0.9849,1.0,0.8944,0.0,0.0041,1.0,0.6413,1.0,0.9884,1.0,0.9581,0.0,0.0013,1.0,0.621,1.0,0.9953,1.0,0.9791,0.0,0.0003,1.0,0.9068,1.0,0.999,1.0,0.9123,0.0,0.0001,1.0,0.9336,1.0,0.9995,1.0,0.7716,0.0,0.0001,0.0,0.0899,1.0,0.9995,1.0,0.9785,0.0,0.0001,0.0,0.158,1.0,0.9994,1.0,0.8399,0.0,0.0002,0.0,0.1658,1.0,0.9992,1.0,0.7383,0.0,0.0002,0.0,0.0651,1.0,0.9992,0.0,0.202,0.0,0.0003,0.0,0.0,1.0,0.9993,0.0,0.1271,0.0,0.0004,0.0,0.0,1.0,0.9993
TSEVO,LSTMFCN,270,0,4,216.956,0.6857,0.5,7.6121,43.6606,10.823,0.2066,1.0,0.9999,1.0,0.8903,1.0,0.2066,0.0,0.0027,1.0,1.0,1.0,0.7547,0.0,0.201,0.0,0.0018,1.0,1.0,1.0,0.8714,0.0,0.0495,0.0,0.0013,1.0,1.0,1.0,0.9649,0.0,0.0308,0.0,0.0011,1.0,1.0,1.0,0.9913,0.0,0.0811,0.0,0.0009,1.0,1.0,1.0,0.9955,0.0,0.0221,0.0,0.0006,1.0,0.9992,1.0,0.9972,1.0,0.9759,0.0,0.0004,0.0,0.4436,1.0,0.9984,1.0,0.9867,0.0,0.0003,1.0,0.6162,1.0,0.999,1.0,0.5955,0.0,0.0003,0.0,0.0044,1.0,0.9994,1.0,0.9984,0.0,0.0003,0.0,0.0023,1.0,0.9996,1.0,0.9996,0.0,0.0002
TSEVO,LSTMFCN,2293,0,4,226.4522,0.85,0.5,5.1408,28.0466,8.706,0.2037,1.0,0.9997,1.0,0.9191,1.0,0.2037,0.0,0.002,1.0,0.9999,1.0,0.9564,0.0,0.249,0.0,0.002,1.0,1.0,1.0,0.984,0.0,0.0076,0.0,0.0015,1.0,1.0,1.0,0.9863,0.0,0.0187,0.0,0.0012,1.0,1.0,1.0,0.9867,0.0,0.1844,0.0,0.0015,1.0,0.9992,1.0,0.987,1.0,0.5874,0.0,0.0021,1.0,0.8767,1.0,0.988,1.0,0.8781,0.0,0.0026,1.0,0.9323,1.0,0.9912,1.0,0.9305,0.0,0.0029,0.0,0.0154,1.0,0.9952,1.0,0.9994,0.0,0.0018,0.0,0.0001,1.0,0.9977,1.0,0.9988,0.0,0.0008,0.0,0.0,1.0,0.9987,1.0,0.98,0.0,0.0004
TSEVO,LSTMFCN,317,0,3,221.6273,0.9,0.7,6.2059,22.8852,8.6952,0.2154,1.0,0.9999,1.0,0.9621,1.0,0.2154,0.0,0.001,1.0,1.0,1.0,0.9776,0.0,0.0801,0.0,0.0006,1.0,1.0,1.0,0.9955,0.0,0.0027,0.0,0.0006,1.0,1.0,1.0,0.9969,0.0,0.0008,0.0,0.0007,1.0,1.0,1.0,0.9939,0.0,0.0009,0.0,0.0007,1.0,1.0,1.0,0.9922,0.0,0.0006,0.0,0.0006,1.0,0.9968,1.0,0.9946,0.0,0.0007,0.0,0.0004,1.0,0.977,1.0,0.9972,0.0,0.0001,0.0,0.0002,0.0,0.4296,1.0,0.9986,0.0,0.0,0.0,0.0001,0.0,0.0195,1.0,0.999,0.0,0.0,0.0,0.0,0.0,0.0076,1.0,0.9993,0.0,0.0,0.0,0.0
TSEVO,LSTMFCN,4145,1,2,215.1426,0.7643,0.2,4.785,28.2268,7.0642,0.2507,1.0,0.9821,0.0,0.0005,1.0,0.2507,0.0,0.0246,1.0,0.9673,0.0,0.0001,0.0,0.0488,0.0,0.0008,1.0,0.9499,0.0,0.0,0.0,0.0004,0.0,0.0,1.0,0.9504,0.0,0.0,0.0,0.0005,0.0,0.0,1.0,0.6858,0.0,0.0,0.0,0.0003,0.0,0.0,1.0,0.8022,0.0,0.0,0.0,0.0055,0.0,0.0,1.0,0.9822,0.0,0.0,0.0,0.0017,0.0,0.0,1.0,0.9404,0.0,0.0,0.0,0.0104,0.0,0.0,1.0,0.9149,0.0,0.0,0.0,0.0055,0.0,0.0,0.0,0.2417,0.0,0.0,0.0,0.0034,0.0,0.0,0.0,0.0216,0.0,0.0,0.0,0.0,0.0,0.0
