Method,Model,Sample_Index,Original_Class,Counterfactual_Class,Generation_Time,Tp_Sparsity,Seg_Sparsity,DTW,L1,L2,CF_Conf,Orig_Rob_Gauss_eps0.00,Orig_Conf_Gauss_eps0.00,Orig_Rob_Adv_eps0.00,Orig_Conf_Adv_eps0.00,CF_Rob_Gauss_eps0.00,CF_Conf_Gauss_eps0.00,CF_Rob_Adv_eps0.00,CF_Conf_Adv_eps0.00,Orig_Rob_Gauss_eps0.20,Orig_Conf_Gauss_eps0.20,Orig_Rob_Adv_eps0.20,Orig_Conf_Adv_eps0.20,CF_Rob_Gauss_eps0.20,CF_Conf_Gauss_eps0.20,CF_Rob_Adv_eps0.20,CF_Conf_Adv_eps0.20,Orig_Rob_Gauss_eps0.40,Orig_Conf_Gauss_eps0.40,Orig_Rob_Adv_eps0.40,Orig_Conf_Adv_eps0.40,CF_Rob_Gauss_eps0.40,CF_Conf_Gauss_eps0.40,CF_Rob_Adv_eps0.40,CF_Conf_Adv_eps0.40,Orig_Rob_Gauss_eps0.60,Orig_Conf_Gauss_eps0.60,Orig_Rob_Adv_eps0.60,Orig_Conf_Adv_eps0.60,CF_Rob_Gauss_eps0.60,CF_Conf_Gauss_eps0.60,CF_Rob_Adv_eps0.60,CF_Conf_Adv_eps0.60,Orig_Rob_Gauss_eps0.80,Orig_Conf_Gauss_eps0.80,Orig_Rob_Adv_eps0.80,Orig_Conf_Adv_eps0.80,CF_Rob_Gauss_eps0.80,CF_Conf_Gauss_eps0.80,CF_Rob_Adv_eps0.80,CF_Conf_Adv_eps0.80,Orig_Rob_Gauss_eps1.00,Orig_Conf_Gauss_eps1.00,Orig_Rob_Adv_eps1.00,Orig_Conf_Adv_eps1.00,CF_Rob_Gauss_eps1.00,CF_Conf_Gauss_eps1.00,CF_Rob_Adv_eps1.00,CF_Conf_Adv_eps1.00,Orig_Rob_Gauss_eps1.20,Orig_Conf_Gauss_eps1.20,Orig_Rob_Adv_eps1.20,Orig_Conf_Adv_eps1.20,CF_Rob_Gauss_eps1.20,CF_Conf_Gauss_eps1.20,CF_Rob_Adv_eps1.20,CF_Conf_Adv_eps1.20,Orig_Rob_Gauss_eps1.40,Orig_Conf_Gauss_eps1.40,Orig_Rob_Adv_eps1.40,Orig_Conf_Adv_eps1.40,CF_Rob_Gauss_eps1.40,CF_Conf_Gauss_eps1.40,CF_Rob_Adv_eps1.40,CF_Conf_Adv_eps1.40,Orig_Rob_Gauss_eps1.60,Orig_Conf_Gauss_eps1.60,Orig_Rob_Adv_eps1.60,Orig_Conf_Adv_eps1.60,CF_Rob_Gauss_eps1.60,CF_Conf_Gauss_eps1.60,CF_Rob_Adv_eps1.60,CF_Conf_Adv_eps1.60,Orig_Rob_Gauss_eps1.80,Orig_Conf_Gauss_eps1.80,Orig_Rob_Adv_eps1.80,Orig_Conf_Adv_eps1.80,CF_Rob_Gauss_eps1.80,CF_Conf_Gauss_eps1.80,CF_Rob_Adv_eps1.80,CF_Conf_Adv_eps1.80,Orig_Rob_Gauss_eps2.00,Orig_Conf_Gauss_eps2.00,Orig_Rob_Adv_eps2.00,Orig_Conf_Adv_eps2.00,CF_Rob_Gauss_eps2.00,CF_Conf_Gauss_eps2.00,CF_Rob_Adv_eps2.00,CF_Conf_Adv_eps2.00
NG_CF,LSTMFCN,37,1,0,10.1067,0.375,0.3,2.0714,30.7553,5.0961,0.5763,1.0,0.9655,0.0,0.0047,1.0,0.5763,1.0,0.9993,1.0,0.9732,0.0,0.0027,1.0,0.593,1.0,0.9983,1.0,0.9992,0.0,0.0038,0.0,0.1922,1.0,0.9928,1.0,1.0,0.0,0.0102,0.0,0.1555,1.0,0.9535,1.0,1.0,0.0,0.046,0.0,0.0017,1.0,0.6883,1.0,1.0,0.0,0.1557,0.0,0.0,0.0,0.2461,1.0,1.0,0.0,0.3504,0.0,0.0,0.0,0.0559,1.0,1.0,0.0,0.478,0.0,0.0,0.0,0.0094,1.0,1.0,1.0,0.5628,0.0,0.0,0.0,0.0016,1.0,1.0,1.0,0.5685,0.0,0.0,0.0,0.0003,1.0,1.0,1.0,0.5749,0.0,0.0,0.0,0.0001
NG_CF,LSTMFCN,62,1,0,11.7203,0.2812,0.2,3.1642,40.8078,6.0605,0.5953,1.0,0.9988,0.0,0.0104,1.0,0.5953,1.0,0.9977,1.0,0.9993,0.0,0.0048,0.0,0.1958,1.0,0.9938,1.0,0.9999,0.0,0.0035,0.0,0.0505,1.0,0.9313,1.0,1.0,0.0,0.0032,0.0,0.004,0.0,0.3078,1.0,1.0,0.0,0.0027,0.0,0.0,0.0,0.0278,1.0,1.0,0.0,0.0019,0.0,0.0,0.0,0.0069,1.0,1.0,0.0,0.0018,0.0,0.0,0.0,0.003,1.0,1.0,0.0,0.0014,0.0,0.0,0.0,0.0015,1.0,1.0,0.0,0.0012,0.0,0.0,0.0,0.0008,1.0,1.0,0.0,0.0019,0.0,0.0,0.0,0.0004,1.0,1.0,0.0,0.0059,0.0,0.0,0.0,0.0003
NG_CF,LSTMFCN,26,0,1,8.7383,0.4271,0.3,1.0942,11.5437,2.1239,0.615,1.0,0.9115,1.0,0.9999,1.0,0.615,0.0,0.0003,1.0,0.8383,1.0,0.9998,1.0,0.8416,0.0,0.0001,1.0,0.8015,1.0,0.9995,1.0,0.8825,0.0,0.0001,0.0,0.0332,1.0,0.9981,1.0,0.832,0.0,0.0001,0.0,0.0087,1.0,0.9886,1.0,0.9994,0.0,0.0002,0.0,0.0,1.0,0.9341,1.0,1.0,0.0,0.0001,0.0,0.0,1.0,0.6961,1.0,1.0,0.0,0.0001,0.0,0.0,0.0,0.3864,1.0,1.0,0.0,0.0002,0.0,0.0,0.0,0.182,1.0,1.0,0.0,0.0009,0.0,0.0,0.0,0.1158,1.0,1.0,0.0,0.0061,0.0,0.0,0.0,0.1239,1.0,1.0,0.0,0.0452
NG_CF,LSTMFCN,41,1,0,1.7435,0.8542,0.8,1.0072,8.4345,2.7599,0.5407,1.0,0.6131,0.0,0.0011,1.0,0.5407,1.0,0.9999,1.0,0.6527,0.0,0.0008,0.0,0.3532,1.0,0.9997,1.0,0.7127,0.0,0.0007,0.0,0.4551,1.0,0.9994,1.0,0.9031,0.0,0.0006,0.0,0.0864,1.0,0.9979,1.0,1.0,0.0,0.0006,0.0,0.0003,1.0,0.9908,1.0,1.0,0.0,0.0007,0.0,0.002,1.0,0.943,1.0,1.0,0.0,0.0011,0.0,0.0,1.0,0.53,1.0,1.0,0.0,0.0006,0.0,0.0,0.0,0.105,1.0,1.0,0.0,0.0005,0.0,0.0,0.0,0.0152,1.0,1.0,0.0,0.0005,0.0,0.0,0.0,0.003,1.0,1.0,0.0,0.0008,0.0,0.0,0.0,0.0008
NG_CF,LSTMFCN,35,1,0,5.9236,0.5729,0.5,1.8999,11.2205,2.5424,0.6584,1.0,0.5876,0.0,0.0002,1.0,0.6584,1.0,0.9999,1.0,0.5852,0.0,0.0,1.0,0.7101,1.0,0.9995,1.0,0.9569,0.0,0.0,0.0,0.1846,1.0,0.9988,1.0,0.8402,0.0,0.0,0.0,0.1672,1.0,0.9928,1.0,0.9996,0.0,0.0,0.0,0.0021,1.0,0.8536,1.0,1.0,0.0,0.0,0.0,0.0,0.0,0.1164,1.0,1.0,0.0,0.0,0.0,0.0,0.0,0.01,1.0,1.0,0.0,0.0001,0.0,0.0,0.0,0.002,1.0,1.0,0.0,0.0001,0.0,0.0,0.0,0.0007,1.0,1.0,0.0,0.0003,0.0,0.0,0.0,0.0004,1.0,1.0,0.0,0.0011,0.0,0.0,0.0,0.0002
NG_CF,LSTMFCN,36,1,0,6.6256,0.5208,0.4,2.2487,26.7651,4.6833,0.5794,1.0,0.9727,0.0,0.0031,1.0,0.5794,1.0,0.9977,1.0,0.9809,0.0,0.0014,0.0,0.3535,1.0,0.9714,1.0,0.9978,0.0,0.0011,0.0,0.1378,0.0,0.4895,1.0,0.9999,0.0,0.0013,0.0,0.022,0.0,0.0272,1.0,1.0,0.0,0.0029,0.0,0.0002,0.0,0.0029,1.0,1.0,0.0,0.0076,0.0,0.0,0.0,0.0006,1.0,1.0,0.0,0.0139,0.0,0.0,0.0,0.0002,1.0,1.0,0.0,0.0298,0.0,0.0,0.0,0.0001,1.0,1.0,0.0,0.0627,0.0,0.0,0.0,0.0001,1.0,1.0,0.0,0.1489,0.0,0.0,0.0,0.0,1.0,1.0,1.0,0.5235,0.0,0.0,0.0,0.0
NG_CF,LSTMFCN,69,1,0,14.0582,0.1875,0.1,2.6831,34.8351,5.3275,0.5051,1.0,0.9977,0.0,0.0043,1.0,0.5051,1.0,0.9995,1.0,0.9989,0.0,0.0025,1.0,0.5102,1.0,0.9984,1.0,0.9997,0.0,0.0016,0.0,0.3562,1.0,0.9965,1.0,1.0,0.0,0.0015,0.0,0.0364,1.0,0.9859,1.0,1.0,0.0,0.0017,0.0,0.0,1.0,0.9318,1.0,1.0,0.0,0.0011,0.0,0.0,1.0,0.6524,1.0,1.0,0.0,0.0007,0.0,0.0,0.0,0.2411,1.0,1.0,0.0,0.0008,0.0,0.0,0.0,0.0464,1.0,1.0,0.0,0.0012,0.0,0.0,0.0,0.0091,1.0,1.0,0.0,0.0032,0.0,0.0,0.0,0.0021,1.0,1.0,0.0,0.0106,0.0,0.0,0.0,0.0007
NG_CF,LSTMFCN,96,1,0,14.0228,0.1979,0.1,1.4746,29.0398,4.2334,0.9836,1.0,0.9883,0.0,0.0022,1.0,0.9836,1.0,0.9999,1.0,0.9893,0.0,0.0005,1.0,0.9159,1.0,0.9993,1.0,0.9993,0.0,0.0002,0.0,0.4709,1.0,0.9919,1.0,0.9969,0.0,0.0002,0.0,0.0002,1.0,0.8168,1.0,1.0,0.0,0.0001,0.0,0.0002,0.0,0.0806,1.0,1.0,0.0,0.0,0.0,0.0,0.0,0.0041,1.0,1.0,0.0,0.0,0.0,0.0,0.0,0.0006,1.0,1.0,0.0,0.0,0.0,0.0,0.0,0.0001,1.0,1.0,0.0,0.0,0.0,0.0,0.0,0.0,1.0,1.0,0.0,0.0,0.0,0.0,0.0,0.0,1.0,1.0,0.0,0.0,0.0,0.0,0.0,0.0
NG_CF,LSTMFCN,72,1,0,1.8935,0.8229,0.7,0.8078,4.5869,1.2199,0.6016,1.0,0.9532,0.0,0.0107,1.0,0.6016,1.0,0.9985,1.0,0.9305,0.0,0.0014,1.0,0.517,1.0,0.992,1.0,0.9975,0.0,0.0002,0.0,0.2724,1.0,0.8441,1.0,1.0,0.0,0.0,0.0,0.0,0.0,0.027,1.0,1.0,0.0,0.0,0.0,0.0,0.0,0.0005,1.0,1.0,0.0,0.0,0.0,0.0,0.0,0.0,1.0,1.0,0.0,0.0,0.0,0.0,0.0,0.0,1.0,1.0,0.0,0.0,0.0,0.0,0.0,0.0,1.0,1.0,0.0,0.0,0.0,0.0,0.0,0.0,1.0,1.0,0.0,0.0,0.0,0.0,0.0,0.0,1.0,1.0,0.0,0.0,0.0,0.0,0.0,0.0
NG_CF,LSTMFCN,5,1,0,14.0914,0.1979,0.1,3.0584,33.0622,5.1474,0.5018,1.0,0.9967,0.0,0.0033,1.0,0.5018,1.0,0.9995,1.0,0.9979,0.0,0.0019,0.0,0.4719,1.0,0.9981,1.0,0.9997,0.0,0.0014,0.0,0.0945,1.0,0.9958,1.0,1.0,0.0,0.0011,0.0,0.0046,1.0,0.9861,1.0,1.0,0.0,0.001,0.0,0.0001,1.0,0.9531,1.0,1.0,0.0,0.0008,0.0,0.0055,1.0,0.8182,1.0,1.0,0.0,0.0004,0.0,0.0,1.0,0.521,1.0,1.0,0.0,0.0002,0.0,0.0,0.0,0.1885,1.0,1.0,0.0,0.0002,0.0,0.0,0.0,0.0401,1.0,1.0,0.0,0.0003,0.0,0.0,0.0,0.0079,1.0,1.0,0.0,0.001,0.0,0.0,0.0,0.002
NG_CF,LSTMFCN,29,1,0,14.1771,0.1771,0.1,3.0341,33.6602,5.2136,0.5352,1.0,0.9992,0.0,0.0058,1.0,0.5352,1.0,0.9995,1.0,0.9998,0.0,0.0036,0.0,0.4672,1.0,0.9978,1.0,0.9997,0.0,0.0029,0.0,0.1398,1.0,0.9949,1.0,0.9999,0.0,0.0023,0.0,0.2309,1.0,0.9827,1.0,1.0,0.0,0.0024,0.0,0.0001,1.0,0.9362,1.0,1.0,0.0,0.0018,0.0,0.0,1.0,0.7354,1.0,1.0,0.0,0.0009,0.0,0.0,0.0,0.3715,1.0,1.0,0.0,0.0004,0.0,0.0,0.0,0.1062,1.0,1.0,0.0,0.0003,0.0,0.0,0.0,0.0226,1.0,1.0,0.0,0.0003,0.0,0.0,0.0,0.0049,1.0,1.0,0.0,0.0005,0.0,0.0,0.0,0.0014
NG_CF,LSTMFCN,83,1,0,10.2831,0.3542,0.3,2.54,30.6826,5.3242,0.7869,1.0,0.9998,0.0,0.0095,1.0,0.7869,1.0,0.9991,1.0,0.9999,0.0,0.0037,0.0,0.4339,1.0,0.9985,1.0,1.0,0.0,0.002,0.0,0.3406,1.0,0.9979,1.0,1.0,0.0,0.0016,0.0,0.1279,1.0,0.9941,1.0,1.0,0.0,0.0014,0.0,0.0002,1.0,0.8503,1.0,1.0,0.0,0.0011,0.0,0.0,0.0,0.098,1.0,1.0,0.0,0.0009,0.0,0.0,0.0,0.0053,1.0,1.0,0.0,0.0008,0.0,0.0,0.0,0.0006,1.0,1.0,0.0,0.0013,0.0,0.0,0.0,0.0001,1.0,1.0,0.0,0.0037,0.0,0.0,0.0,0.0001,1.0,1.0,0.0,0.0089,0.0,0.0,0.0,0.0
NG_CF,LSTMFCN,82,1,0,4.7085,0.6458,0.5,0.8163,6.4063,1.4599,0.5294,1.0,0.8034,0.0,0.0014,1.0,0.5294,1.0,0.9992,1.0,0.8191,0.0,0.0004,1.0,0.5794,1.0,0.9973,1.0,0.9978,0.0,0.0001,0.0,0.0375,1.0,0.9517,1.0,1.0,0.0,0.0001,0.0,0.0162,0.0,0.0731,1.0,1.0,0.0,0.0002,0.0,0.0,0.0,0.0013,1.0,1.0,0.0,0.0002,0.0,0.0,0.0,0.0001,1.0,1.0,0.0,0.0005,0.0,0.0,0.0,0.0,1.0,1.0,0.0,0.0005,0.0,0.0,0.0,0.0,1.0,1.0,0.0,0.0005,0.0,0.0,0.0,0.0,1.0,1.0,0.0,0.0005,0.0,0.0,0.0,0.0,1.0,1.0,0.0,0.0006,0.0,0.0,0.0,0.0
NG_CF,LSTMFCN,43,1,0,14.1703,0.1979,0.1,2.0673,30.2736,4.5474,0.8582,1.0,0.999,0.0,0.02,1.0,0.8582,1.0,0.9994,1.0,0.9986,0.0,0.0027,1.0,0.5893,1.0,0.9963,1.0,1.0,0.0,0.0014,0.0,0.0337,1.0,0.8481,1.0,1.0,0.0,0.001,0.0,0.0,0.0,0.0252,1.0,1.0,0.0,0.0006,0.0,0.0,0.0,0.0005,1.0,1.0,0.0,0.0003,0.0,0.0,0.0,0.0,1.0,1.0,0.0,0.0002,0.0,0.0,0.0,0.0,1.0,1.0,0.0,0.0002,0.0,0.0,0.0,0.0,1.0,1.0,0.0,0.0003,0.0,0.0,0.0,0.0,1.0,1.0,0.0,0.0006,0.0,0.0,0.0,0.0,1.0,1.0,0.0,0.002,0.0,0.0,0.0,0.0
NG_CF,LSTMFCN,28,0,1,12.4498,0.25,0.1,2.037,35.3917,5.7812,0.5562,1.0,0.9936,1.0,0.9998,1.0,0.5562,0.0,0.0007,1.0,0.9946,1.0,0.9997,1.0,0.5795,0.0,0.0001,1.0,0.9734,1.0,0.9996,1.0,0.6147,0.0,0.0,0.0,0.3772,1.0,0.9994,1.0,0.9831,0.0,0.0,0.0,0.0308,1.0,0.9992,1.0,1.0,0.0,0.0,0.0,0.0,1.0,0.9987,1.0,1.0,0.0,0.0,0.0,0.0,1.0,0.9981,1.0,1.0,0.0,0.0,0.0,0.0,1.0,0.996,1.0,1.0,0.0,0.0,0.0,0.0,1.0,0.99,1.0,1.0,0.0,0.0,0.0,0.0,1.0,0.9604,1.0,1.0,0.0,0.0,0.0,0.0,1.0,0.8273,1.0,1.0,0.0,0.0
NG_CF,LSTMFCN,22,1,0,4.8721,0.6146,0.5,2.0877,24.9603,4.8017,0.56,1.0,0.9669,0.0,0.0032,1.0,0.56,1.0,0.9961,1.0,0.9734,0.0,0.0017,0.0,0.4496,1.0,0.9405,1.0,0.9974,0.0,0.0017,0.0,0.0188,0.0,0.1265,1.0,0.9956,0.0,0.0042,0.0,0.0483,0.0,0.0014,1.0,1.0,0.0,0.0217,0.0,0.0002,0.0,0.0001,1.0,1.0,0.0,0.1358,0.0,0.0,0.0,0.0,1.0,1.0,0.0,0.4177,0.0,0.0,0.0,0.0,1.0,1.0,1.0,0.7428,0.0,0.0,0.0,0.0,1.0,1.0,1.0,0.88,0.0,0.0,0.0,0.0,1.0,1.0,1.0,0.9431,0.0,0.0,0.0,0.0,1.0,1.0,1.0,0.9853,0.0,0.0,0.0,0.0
NG_CF,LSTMFCN,90,1,0,1.6603,0.8438,0.7,0.6716,4.5534,1.2375,0.5301,1.0,0.9646,0.0,0.024,1.0,0.5301,1.0,0.9958,1.0,0.9797,0.0,0.0023,0.0,0.4814,1.0,0.9862,1.0,0.9903,0.0,0.0004,0.0,0.0929,1.0,0.8565,1.0,0.9995,0.0,0.0002,0.0,0.0001,0.0,0.0322,1.0,1.0,0.0,0.0002,0.0,0.0,0.0,0.0004,1.0,1.0,0.0,0.0003,0.0,0.0,0.0,0.0,1.0,1.0,0.0,0.0004,0.0,0.0,0.0,0.0,1.0,1.0,0.0,0.0006,0.0,0.0,0.0,0.0,1.0,1.0,0.0,0.0011,0.0,0.0,0.0,0.0,1.0,1.0,0.0,0.0024,0.0,0.0,0.0,0.0,1.0,1.0,0.0,0.0045,0.0,0.0,0.0,0.0
NG_CF,LSTMFCN,86,0,1,1.1778,0.8854,0.8,0.948,5.8652,2.0677,0.8935,1.0,0.8075,1.0,0.9975,1.0,0.8935,0.0,0.0026,1.0,0.7713,1.0,0.9954,1.0,0.8581,0.0,0.0011,0.0,0.4824,1.0,0.991,1.0,0.9507,0.0,0.0006,1.0,0.7665,1.0,0.956,1.0,0.9992,0.0,0.0004,0.0,0.0003,1.0,0.7327,1.0,0.9999,0.0,0.0003,0.0,0.0004,0.0,0.4263,1.0,1.0,0.0,0.0004,0.0,0.0,0.0,0.2311,1.0,1.0,0.0,0.0005,0.0,0.0,0.0,0.0874,1.0,1.0,0.0,0.0007,0.0,0.0,0.0,0.0188,1.0,1.0,0.0,0.001,0.0,0.0,0.0,0.0027,1.0,1.0,0.0,0.0017,0.0,0.0,0.0,0.0004,1.0,1.0,0.0,0.0034
NG_CF,LSTMFCN,20,0,1,11.615,0.2812,0.2,5.2913,57.0877,9.35,0.5289,1.0,0.9986,1.0,0.9993,1.0,0.5289,0.0,0.0028,1.0,0.9973,1.0,0.9741,1.0,0.5869,0.0,0.0004,0.0,0.1504,0.0,0.3885,1.0,0.8297,0.0,0.0001,0.0,0.0002,0.0,0.0142,1.0,0.9993,0.0,0.0,0.0,0.0,0.0,0.0006,1.0,1.0,0.0,0.0001,0.0,0.0,0.0,0.0001,1.0,1.0,0.0,0.0001,0.0,0.0,0.0,0.0,1.0,1.0,0.0,0.0001,0.0,0.0,0.0,0.0,1.0,1.0,0.0,0.0002,0.0,0.0,0.0,0.0,1.0,1.0,0.0,0.0005,0.0,0.0,0.0,0.0,1.0,1.0,0.0,0.0012,0.0,0.0,0.0,0.0,1.0,1.0,0.0,0.0028
NG_CF,LSTMFCN,32,0,1,1.8131,0.9375,1.0,1.3191,2.5438,1.4611,0.5091,1.0,0.6889,1.0,0.9999,1.0,0.5091,0.0,0.0001,1.0,0.6174,1.0,0.9997,1.0,0.5404,0.0,0.0,1.0,0.7762,1.0,0.9985,1.0,0.7313,0.0,0.0,0.0,0.023,1.0,0.965,1.0,0.9664,0.0,0.0,0.0,0.0057,0.0,0.3575,1.0,1.0,0.0,0.0,0.0,0.0,0.0,0.0475,1.0,1.0,0.0,0.0,0.0,0.0,0.0,0.013,1.0,1.0,0.0,0.0,0.0,0.0,0.0,0.0046,1.0,1.0,0.0,0.0002,0.0,0.0,0.0,0.002,1.0,1.0,0.0,0.0012,0.0,0.0,0.0,0.0009,1.0,1.0,0.0,0.0074,0.0,0.0,0.0,0.0004,1.0,1.0,0.0,0.0513
NG_CF,LSTMFCN,6,1,0,2.8283,0.75,0.7,0.485,4.5646,1.0652,0.528,1.0,0.6882,0.0,0.0001,1.0,0.528,1.0,0.9999,1.0,0.7343,0.0,0.0001,1.0,0.6049,1.0,0.9998,1.0,0.6678,0.0,0.0001,0.0,0.2809,1.0,0.9997,1.0,0.7147,0.0,0.0001,0.0,0.2504,1.0,0.9987,1.0,1.0,0.0,0.0001,0.0,0.0004,1.0,0.9725,1.0,1.0,0.0,0.0002,0.0,0.0012,0.0,0.4444,1.0,1.0,0.0,0.0003,0.0,0.0,0.0,0.0512,1.0,1.0,0.0,0.0005,0.0,0.0,0.0,0.012,1.0,1.0,0.0,0.0007,0.0,0.0,0.0,0.0039,1.0,1.0,0.0,0.002,0.0,0.0,0.0,0.0019,1.0,1.0,0.0,0.0068,0.0,0.0,0.0,0.0006
NG_CF,LSTMFCN,12,0,1,1.6459,0.8438,0.7,2.2221,10.969,3.271,0.5859,1.0,0.8863,1.0,0.9943,1.0,0.5859,0.0,0.0082,1.0,0.7967,1.0,0.9572,1.0,0.6883,0.0,0.0018,0.0,0.2427,1.0,0.7596,0.0,0.4878,0.0,0.0009,0.0,0.1745,0.0,0.408,1.0,0.9823,0.0,0.0006,0.0,0.0096,0.0,0.116,1.0,0.9936,0.0,0.0007,0.0,0.0,0.0,0.0207,1.0,1.0,0.0,0.001,0.0,0.0,0.0,0.0033,1.0,1.0,0.0,0.0007,0.0,0.0,0.0,0.0007,1.0,1.0,0.0,0.0004,0.0,0.0,0.0,0.0002,1.0,1.0,0.0,0.0003,0.0,0.0,0.0,0.0,1.0,1.0,0.0,0.0005,0.0,0.0,0.0,0.0,1.0,1.0,0.0,0.0015
NG_CF,LSTMFCN,51,0,1,16.1545,0.1146,0.0,5.6642,63.881,9.4953,0.8837,1.0,0.9999,1.0,1.0,1.0,0.8837,0.0,0.0012,1.0,0.9995,1.0,0.9998,1.0,0.922,0.0,0.0001,1.0,0.9905,1.0,0.9969,1.0,0.9965,0.0,0.0,0.0,0.1656,1.0,0.9236,1.0,0.9996,0.0,0.0,0.0,0.0,0.0,0.0609,1.0,1.0,0.0,0.0,0.0,0.0,0.0,0.0004,1.0,1.0,0.0,0.0,0.0,0.0,0.0,0.0,1.0,1.0,0.0,0.0,0.0,0.0,0.0,0.0,1.0,1.0,0.0,0.0,0.0,0.0,0.0,0.0,1.0,1.0,0.0,0.0,0.0,0.0,0.0,0.0,1.0,1.0,0.0,0.0,0.0,0.0,0.0,0.0,1.0,1.0,0.0,0.0
NG_CF,LSTMFCN,84,0,1,1.7879,0.8646,0.8,1.3399,10.7632,3.4874,0.5927,1.0,0.9981,1.0,1.0,1.0,0.5927,0.0,0.0001,1.0,0.9985,1.0,1.0,1.0,0.7175,0.0,0.0,1.0,0.9872,1.0,0.9999,1.0,0.941,0.0,0.0,1.0,0.9027,1.0,0.9992,1.0,0.9948,0.0,0.0,0.0,0.0213,1.0,0.965,1.0,0.9999,0.0,0.0,0.0,0.0,1.0,0.5107,1.0,1.0,0.0,0.0,0.0,0.0,0.0,0.1101,1.0,0.9999,0.0,0.0001,0.0,0.0,0.0,0.0272,1.0,1.0,0.0,0.0009,0.0,0.0,0.0,0.009,1.0,1.0,0.0,0.0198,0.0,0.0,0.0,0.0048,1.0,1.0,0.0,0.2345,0.0,0.0,0.0,0.0035,1.0,1.0,1.0,0.7623
NG_CF,LSTMFCN,73,1,0,1.7238,0.8438,0.7,0.3985,3.1932,0.9387,0.5465,1.0,0.9698,0.0,0.0013,1.0,0.5465,1.0,0.9998,1.0,0.9811,0.0,0.0002,0.0,0.2594,1.0,0.9992,1.0,0.9227,0.0,0.0,0.0,0.0156,1.0,0.9952,1.0,1.0,0.0,0.0,0.0,0.0001,1.0,0.9248,1.0,1.0,0.0,0.0,0.0,0.0,0.0,0.3136,1.0,1.0,0.0,0.0001,0.0,0.0,0.0,0.0288,1.0,1.0,0.0,0.0001,0.0,0.0,0.0,0.0033,1.0,1.0,0.0,0.0003,0.0,0.0,0.0,0.0005,1.0,1.0,0.0,0.0005,0.0,0.0,0.0,0.0001,1.0,1.0,0.0,0.0012,0.0,0.0,0.0,0.0,1.0,1.0,0.0,0.0037,0.0,0.0,0.0,0.0
NG_CF,LSTMFCN,64,0,1,1.5161,0.8646,0.8,1.5022,9.6325,3.5655,0.942,1.0,0.5985,1.0,1.0,1.0,0.942,0.0,0.0001,1.0,0.7,1.0,0.9999,1.0,0.9611,0.0,0.0001,0.0,0.445,1.0,0.9987,1.0,0.9782,0.0,0.0001,0.0,0.308,1.0,0.9875,1.0,0.9241,0.0,0.0001,0.0,0.0037,1.0,0.8937,1.0,1.0,0.0,0.0001,0.0,0.0,0.0,0.4909,1.0,1.0,0.0,0.0001,0.0,0.0003,0.0,0.1438,1.0,1.0,0.0,0.0001,0.0,0.0,0.0,0.0585,1.0,1.0,0.0,0.0003,0.0,0.0,0.0,0.0292,1.0,1.0,0.0,0.0019,0.0,0.0,0.0,0.0109,1.0,1.0,0.0,0.0264,0.0,0.0,0.0,0.0052,1.0,1.0,1.0,0.7272
NG_CF,LSTMFCN,68,1,0,14.293,0.2188,0.1,3.022,43.0132,6.3154,0.712,1.0,0.9999,0.0,0.0099,1.0,0.712,1.0,0.9998,1.0,0.9999,0.0,0.0027,1.0,0.619,1.0,0.9988,1.0,0.9998,0.0,0.0014,0.0,0.0332,1.0,0.9895,1.0,1.0,0.0,0.0015,0.0,0.0819,1.0,0.8369,1.0,1.0,0.0,0.0025,0.0,0.0,0.0,0.1612,1.0,1.0,0.0,0.0067,0.0,0.0,0.0,0.015,1.0,1.0,0.0,0.0434,0.0,0.0,0.0,0.0022,1.0,1.0,0.0,0.2014,0.0,0.0,0.0,0.0004,1.0,1.0,1.0,0.5735,0.0,0.0,0.0,0.0001,1.0,1.0,1.0,0.9048,0.0,0.0,0.0,0.0,1.0,1.0,1.0,0.9864,0.0,0.0,0.0,0.0
NG_CF,LSTMFCN,75,0,1,1.2595,0.9271,0.9,0.9966,4.3248,1.674,0.748,1.0,0.853,1.0,0.9985,1.0,0.748,0.0,0.0057,1.0,0.6016,1.0,0.9856,1.0,0.7751,0.0,0.0008,0.0,0.4562,1.0,0.9219,1.0,0.9989,0.0,0.0002,0.0,0.0006,0.0,0.4207,1.0,0.9901,0.0,0.0001,0.0,0.0007,0.0,0.0257,1.0,0.9983,0.0,0.0001,0.0,0.0,0.0,0.002,1.0,1.0,0.0,0.0001,0.0,0.0,0.0,0.0004,1.0,1.0,0.0,0.0001,0.0,0.0,0.0,0.0002,1.0,1.0,0.0,0.0001,0.0,0.0,0.0,0.0001,1.0,1.0,0.0,0.0,0.0,0.0,0.0,0.0001,1.0,1.0,0.0,0.0001,0.0,0.0,0.0,0.0001,1.0,1.0,0.0,0.0001
NG_CF,LSTMFCN,74,1,0,14.1058,0.2083,0.1,3.1495,31.7353,5.1005,0.568,1.0,0.9973,0.0,0.007,1.0,0.568,1.0,0.9994,1.0,0.9987,0.0,0.0021,1.0,0.7001,1.0,0.9979,1.0,0.9998,0.0,0.0015,0.0,0.2191,1.0,0.9931,1.0,1.0,0.0,0.0019,0.0,0.0811,1.0,0.9723,1.0,1.0,0.0,0.003,0.0,0.0003,1.0,0.886,1.0,1.0,0.0,0.0026,0.0,0.0,1.0,0.563,1.0,1.0,0.0,0.0013,0.0,0.0003,0.0,0.2142,1.0,1.0,0.0,0.0007,0.0,0.0,0.0,0.0575,1.0,1.0,0.0,0.0007,0.0,0.0,0.0,0.0132,1.0,1.0,0.0,0.0008,0.0,0.0,0.0,0.0031,1.0,1.0,0.0,0.0013,0.0,0.0,0.0,0.0009
NG_CF,LSTMFCN,57,0,1,9.0031,0.4167,0.3,0.9112,15.4415,2.6021,0.5211,1.0,0.9694,1.0,1.0,1.0,0.5211,0.0,0.0001,1.0,0.9839,1.0,1.0,1.0,0.6525,0.0,0.0,1.0,0.9025,1.0,0.9998,1.0,0.9274,0.0,0.0,0.0,0.0458,1.0,0.9972,1.0,0.9867,0.0,0.0,0.0,0.0001,1.0,0.9458,1.0,0.9996,0.0,0.0,0.0,0.0,1.0,0.5657,1.0,1.0,0.0,0.0,0.0,0.0,0.0,0.137,1.0,1.0,0.0,0.0,0.0,0.0001,0.0,0.0324,1.0,1.0,0.0,0.0,0.0,0.0,0.0,0.0129,1.0,1.0,0.0,0.0,0.0,0.0,0.0,0.0064,1.0,1.0,0.0,0.0001,0.0,0.0,0.0,0.0037,1.0,1.0,0.0,0.0006
NG_CF,LSTMFCN,42,0,1,1.0919,0.8958,0.9,1.2765,2.5181,1.4545,0.5734,1.0,0.7312,1.0,0.992,1.0,0.5734,0.0,0.0109,1.0,0.7131,1.0,0.9742,1.0,0.6612,0.0,0.0033,0.0,0.0155,1.0,0.7092,1.0,0.9391,0.0,0.0012,0.0,0.0122,0.0,0.0638,1.0,0.9948,0.0,0.0008,0.0,0.0,0.0,0.0042,1.0,1.0,0.0,0.0003,0.0,0.0,0.0,0.0008,1.0,1.0,0.0,0.0002,0.0,0.0,0.0,0.0003,1.0,1.0,0.0,0.0001,0.0,0.0,0.0,0.0002,1.0,1.0,0.0,0.0001,0.0,0.0,0.0,0.0001,1.0,1.0,0.0,0.0001,0.0,0.0,0.0,0.0001,1.0,1.0,0.0,0.0001,0.0,0.0,0.0,0.0001,1.0,1.0,0.0,0.0001
NG_CF,LSTMFCN,76,1,0,1.8915,0.8333,0.7,0.885,5.584,1.4962,0.697,1.0,0.9864,0.0,0.0147,1.0,0.697,1.0,0.9993,1.0,0.9947,0.0,0.0027,1.0,0.6177,1.0,0.9943,1.0,0.9984,0.0,0.0005,0.0,0.0658,1.0,0.8335,1.0,1.0,0.0,0.0002,0.0,0.0,0.0,0.0457,1.0,1.0,0.0,0.0001,0.0,0.0,0.0,0.0012,1.0,1.0,0.0,0.0,0.0,0.0,0.0,0.0001,1.0,1.0,0.0,0.0,0.0,0.0,0.0,0.0,1.0,1.0,0.0,0.0,0.0,0.0,0.0,0.0,1.0,1.0,0.0,0.0,0.0,0.0,0.0,0.0,1.0,1.0,0.0,0.0,0.0,0.0,0.0,0.0,1.0,1.0,0.0,0.0001,0.0,0.0,0.0,0.0
NG_CF,LSTMFCN,99,1,0,8.2908,0.4583,0.4,3.3116,18.7161,4.1643,0.516,1.0,0.9708,0.0,0.0004,1.0,0.516,1.0,0.9997,1.0,0.9886,0.0,0.0001,0.0,0.202,1.0,0.9994,1.0,0.9976,0.0,0.0,1.0,0.5178,1.0,0.9989,1.0,0.9999,0.0,0.0,0.0,0.1146,1.0,0.9946,1.0,0.9998,0.0,0.0,0.0,0.0006,1.0,0.9115,1.0,1.0,0.0,0.0,0.0,0.0,0.0,0.2224,1.0,1.0,0.0,0.0,0.0,0.0,0.0,0.0182,1.0,1.0,0.0,0.0001,0.0,0.0,0.0,0.0037,1.0,1.0,0.0,0.0002,0.0,0.0,0.0,0.0011,1.0,1.0,0.0,0.0006,0.0,0.0,0.0,0.0005,1.0,1.0,0.0,0.0027,0.0,0.0,0.0,0.0002
NG_CF,LSTMFCN,17,1,0,5.5315,0.6146,0.5,2.0273,25.4753,5.0523,0.7446,1.0,0.9456,0.0,0.0026,1.0,0.7446,1.0,0.9976,1.0,0.9626,0.0,0.0017,1.0,0.6756,1.0,0.9817,1.0,0.9731,0.0,0.0033,0.0,0.1172,0.0,0.3065,1.0,0.9958,0.0,0.0319,0.0,0.034,0.0,0.0019,1.0,1.0,1.0,0.5034,0.0,0.0,0.0,0.0001,1.0,1.0,1.0,0.9476,0.0,0.0,0.0,0.0,1.0,1.0,1.0,0.9846,0.0,0.0,0.0,0.0,1.0,1.0,1.0,0.9909,0.0,0.0,0.0,0.0,1.0,1.0,1.0,0.9941,0.0,0.0,0.0,0.0,1.0,1.0,1.0,0.9939,0.0,0.0,0.0,0.0,1.0,1.0,1.0,0.9954,0.0,0.0,0.0,0.0
NG_CF,LSTMFCN,63,0,1,4.9074,0.6146,0.5,0.63,7.3447,1.423,0.5851,1.0,0.7267,1.0,1.0,1.0,0.5851,0.0,0.0001,0.0,0.3016,1.0,0.9998,1.0,0.5695,0.0,0.0,0.0,0.1413,1.0,0.9994,1.0,0.9961,0.0,0.0,0.0,0.0371,1.0,0.9978,1.0,0.9992,0.0,0.0,0.0,0.0001,1.0,0.9843,1.0,0.9995,0.0,0.0,0.0,0.0,1.0,0.8727,1.0,0.9999,0.0,0.0,0.0,0.0,1.0,0.5249,1.0,1.0,0.0,0.0001,0.0,0.0,0.0,0.1481,1.0,1.0,0.0,0.0002,0.0,0.0,0.0,0.0349,1.0,1.0,0.0,0.0012,0.0,0.0,0.0,0.0102,1.0,1.0,0.0,0.0066,0.0,0.0,0.0,0.0023,1.0,1.0,0.0,0.0315
NG_CF,LSTMFCN,18,0,1,0.5104,0.9479,0.9,1.7627,4.4402,2.0549,0.5566,1.0,0.5708,1.0,0.9924,1.0,0.5566,0.0,0.0033,1.0,0.5944,1.0,0.9139,1.0,0.6934,0.0,0.0023,0.0,0.139,0.0,0.2286,1.0,0.8408,0.0,0.0027,0.0,0.0016,0.0,0.0109,1.0,0.9997,0.0,0.0014,0.0,0.0,0.0,0.0016,1.0,1.0,0.0,0.0003,0.0,0.0,0.0,0.0006,1.0,1.0,0.0,0.0001,0.0,0.0,0.0,0.0003,1.0,1.0,0.0,0.0001,0.0,0.0,0.0,0.0002,1.0,1.0,0.0,0.0,0.0,0.0,0.0,0.0002,1.0,1.0,0.0,0.0001,0.0,0.0,0.0,0.0002,1.0,1.0,0.0,0.0001,0.0,0.0,0.0,0.0002,1.0,1.0,0.0,0.0001
NG_CF,LSTMFCN,44,1,0,15.7408,0.1667,0.1,3.4248,35.1195,5.4867,0.5174,1.0,0.985,0.0,0.0074,1.0,0.5174,1.0,0.9996,1.0,0.9977,0.0,0.0044,0.0,0.4157,1.0,0.9986,1.0,0.9955,0.0,0.0033,0.0,0.0804,1.0,0.9972,1.0,0.9999,0.0,0.0029,0.0,0.0142,1.0,0.9905,1.0,1.0,0.0,0.0031,0.0,0.001,1.0,0.9598,1.0,1.0,0.0,0.0043,0.0,0.0002,1.0,0.7943,1.0,1.0,0.0,0.0038,0.0,0.0,0.0,0.4012,1.0,1.0,0.0,0.003,0.0,0.0,0.0,0.0963,1.0,1.0,0.0,0.0039,0.0,0.0,0.0,0.0159,1.0,1.0,0.0,0.0112,0.0,0.0,0.0,0.0035,1.0,1.0,0.0,0.0631,0.0,0.0,0.0,0.0009
NG_CF,LSTMFCN,45,1,0,18.7721,0.4062,0.4,1.5992,17.399,2.8723,0.5403,1.0,0.9985,0.0,0.0051,1.0,0.5403,1.0,0.9997,1.0,0.9992,0.0,0.0021,0.0,0.1716,1.0,0.9978,1.0,0.9998,0.0,0.0014,0.0,0.0935,1.0,0.9809,1.0,1.0,0.0,0.0015,0.0,0.0,0.0,0.3999,1.0,1.0,0.0,0.0024,0.0,0.0,0.0,0.0139,1.0,1.0,0.0,0.004,0.0,0.0,0.0,0.0011,1.0,1.0,0.0,0.0039,0.0,0.0,0.0,0.0002,1.0,1.0,0.0,0.0031,0.0,0.0,0.0,0.0001,1.0,1.0,0.0,0.0038,0.0,0.0,0.0,0.0001,1.0,1.0,0.0,0.0091,0.0,0.0,0.0,0.0,1.0,1.0,0.0,0.0379,0.0,0.0,0.0,0.0
NG_CF,LSTMFCN,39,0,1,2.2952,0.8229,0.7,0.4643,6.722,1.8245,0.5323,1.0,0.8369,1.0,1.0,1.0,0.5323,0.0,0.0002,1.0,0.7189,1.0,0.9999,0.0,0.4628,0.0,0.0001,0.0,0.4111,1.0,0.9994,1.0,0.6972,0.0,0.0,0.0,0.0142,1.0,0.9932,1.0,0.9942,0.0,0.0,0.0,0.0003,1.0,0.9249,1.0,0.9998,0.0,0.0,0.0,0.0,1.0,0.5433,1.0,0.9975,0.0,0.0,0.0,0.0,0.0,0.1808,1.0,1.0,0.0,0.0001,0.0,0.0,0.0,0.0639,1.0,1.0,0.0,0.0002,0.0,0.0,0.0,0.0256,1.0,1.0,0.0,0.0006,0.0,0.0,0.0,0.0114,1.0,1.0,0.0,0.0016,0.0,0.0,0.0,0.0063,1.0,1.0,0.0,0.0055
NG_CF,LSTMFCN,70,1,0,11.182,0.3542,0.3,2.2775,29.7549,4.9719,0.8561,1.0,0.999,0.0,0.0079,1.0,0.8561,1.0,0.9997,1.0,0.9997,0.0,0.0015,1.0,0.7082,1.0,0.9988,1.0,0.9998,0.0,0.0005,0.0,0.0626,1.0,0.9973,1.0,1.0,0.0,0.0005,0.0,0.0019,1.0,0.995,1.0,1.0,0.0,0.0011,0.0,0.0,1.0,0.9677,1.0,1.0,0.0,0.0013,0.0,0.0004,1.0,0.6519,1.0,1.0,0.0,0.0028,0.0,0.0,0.0,0.1844,1.0,1.0,0.0,0.0116,0.0,0.0,0.0,0.0367,1.0,1.0,0.0,0.0413,0.0,0.0,0.0,0.0068,1.0,1.0,0.0,0.2063,0.0,0.0,0.0,0.0017,1.0,1.0,1.0,0.7217,0.0,0.0,0.0,0.0006
NG_CF,LSTMFCN,94,1,0,2.7073,0.7917,0.7,1.2388,6.4617,1.776,0.7955,1.0,0.6972,0.0,0.0001,1.0,0.7955,1.0,0.9999,0.0,0.4989,0.0,0.0001,1.0,0.8567,1.0,0.9998,1.0,0.5515,0.0,0.0001,1.0,0.7004,1.0,0.9995,1.0,0.9659,0.0,0.0001,0.0,0.0483,1.0,0.9984,1.0,0.9975,0.0,0.0001,0.0,0.005,1.0,0.9863,1.0,1.0,0.0,0.0001,0.0,0.0,1.0,0.8123,1.0,1.0,0.0,0.0001,0.0,0.0,0.0,0.2235,1.0,1.0,0.0,0.0002,0.0,0.0,0.0,0.0458,1.0,1.0,0.0,0.0007,0.0,0.0,0.0,0.0124,1.0,1.0,0.0,0.006,0.0,0.0,0.0,0.0054,1.0,1.0,0.0,0.0858,0.0,0.0,0.0,0.0027
NG_CF,LSTMFCN,30,1,0,15.9331,0.1875,0.2,3.5042,34.6606,5.319,0.5256,1.0,0.9962,0.0,0.0062,1.0,0.5256,1.0,0.9994,1.0,0.9974,0.0,0.0028,1.0,0.6125,1.0,0.9978,1.0,0.9996,0.0,0.0022,0.0,0.1689,1.0,0.9937,1.0,1.0,0.0,0.0033,0.0,0.019,1.0,0.9749,1.0,1.0,0.0,0.0076,0.0,0.0029,1.0,0.8819,1.0,1.0,0.0,0.0141,0.0,0.0,1.0,0.513,1.0,1.0,0.0,0.0168,0.0,0.0,0.0,0.1638,1.0,1.0,0.0,0.0289,0.0,0.0,0.0,0.0419,1.0,1.0,0.0,0.0793,0.0,0.0,0.0,0.0105,1.0,1.0,0.0,0.193,0.0,0.0,0.0,0.0028,1.0,1.0,0.0,0.4236,0.0,0.0,0.0,0.0009
NG_CF,LSTMFCN,46,1,0,23.8407,0.3958,0.4,2.7925,22.6986,3.685,0.8029,1.0,0.998,0.0,0.0064,1.0,0.8029,1.0,0.9998,1.0,0.9983,0.0,0.0036,0.0,0.174,1.0,0.9983,1.0,0.9997,0.0,0.0023,0.0,0.0962,1.0,0.9919,1.0,1.0,0.0,0.0019,0.0,0.0001,1.0,0.7347,1.0,1.0,0.0,0.0018,0.0,0.0,0.0,0.0465,1.0,1.0,0.0,0.0021,0.0,0.0,0.0,0.0026,1.0,1.0,0.0,0.0035,0.0,0.0,0.0,0.0004,1.0,1.0,0.0,0.013,0.0,0.0,0.0,0.0002,1.0,1.0,0.0,0.0459,0.0,0.0,0.0,0.0001,1.0,1.0,0.0,0.1903,0.0,0.0,0.0,0.0001,1.0,1.0,1.0,0.8019,0.0,0.0,0.0,0.0001
NG_CF,LSTMFCN,80,1,0,14.5041,0.3542,0.3,2.0178,28.7094,4.6325,0.8643,1.0,0.9976,0.0,0.0138,1.0,0.8643,1.0,0.9995,1.0,0.999,0.0,0.0031,1.0,0.9112,1.0,0.9984,1.0,0.9997,0.0,0.0008,1.0,0.6522,1.0,0.9971,1.0,1.0,0.0,0.0004,1.0,0.6447,1.0,0.9943,1.0,1.0,0.0,0.0002,0.0,0.0,1.0,0.9354,1.0,1.0,0.0,0.0001,0.0,0.0,0.0,0.4071,1.0,1.0,0.0,0.0,0.0,0.0,0.0,0.0444,1.0,1.0,0.0,0.0,0.0,0.0,0.0,0.0059,1.0,1.0,0.0,0.0,0.0,0.0,0.0,0.0013,1.0,1.0,0.0,0.0001,0.0,0.0,0.0,0.0004,1.0,1.0,0.0,0.0001,0.0,0.0,0.0,0.0002
NG_CF,LSTMFCN,88,1,0,13.6265,0.3542,0.3,1.9014,25.697,4.4097,0.8108,1.0,0.9905,0.0,0.008,1.0,0.8108,1.0,0.9996,1.0,0.9946,0.0,0.0054,1.0,0.7377,1.0,0.9991,1.0,0.9986,0.0,0.0077,0.0,0.196,1.0,0.9963,1.0,0.9999,0.0,0.0762,0.0,0.0373,1.0,0.9187,1.0,1.0,1.0,0.7081,0.0,0.0049,0.0,0.1315,1.0,1.0,1.0,0.9719,0.0,0.0,0.0,0.0082,1.0,1.0,1.0,0.994,0.0,0.0,0.0,0.0017,1.0,1.0,1.0,0.9982,0.0,0.0,0.0,0.0006,1.0,1.0,1.0,0.999,0.0,0.0,0.0,0.0003,1.0,1.0,1.0,0.9995,0.0,0.0,0.0,0.0002,1.0,1.0,1.0,0.9998,0.0,0.0,0.0,0.0002
NG_CF,LSTMFCN,19,1,0,1.3526,0.9271,0.9,0.6301,3.4127,1.5204,0.5052,1.0,0.9579,0.0,0.0024,1.0,0.5052,1.0,0.9998,1.0,0.9922,0.0,0.0011,0.0,0.3084,1.0,0.9993,1.0,0.9956,0.0,0.0007,0.0,0.0035,1.0,0.9968,1.0,1.0,0.0,0.0006,0.0,0.004,1.0,0.9455,1.0,1.0,0.0,0.0005,0.0,0.0,0.0,0.335,1.0,1.0,0.0,0.0003,0.0,0.0,0.0,0.0162,1.0,1.0,0.0,0.0002,0.0,0.0,0.0,0.0013,1.0,1.0,0.0,0.0003,0.0,0.0,0.0,0.0002,1.0,1.0,0.0,0.0004,0.0,0.0,0.0,0.0001,1.0,1.0,0.0,0.0008,0.0,0.0,0.0,0.0,1.0,1.0,0.0,0.0025,0.0,0.0,0.0,0.0
NG_CF,LSTMFCN,89,1,0,23.2188,0.1875,0.1,3.2455,37.3778,5.5317,0.5939,1.0,0.9993,0.0,0.0107,1.0,0.5939,1.0,0.9995,1.0,0.9995,0.0,0.0032,1.0,0.529,1.0,0.9981,1.0,0.9997,0.0,0.0015,0.0,0.2588,1.0,0.9952,1.0,0.9999,0.0,0.0009,0.0,0.027,1.0,0.9798,1.0,1.0,0.0,0.0009,0.0,0.0134,1.0,0.9075,1.0,1.0,0.0,0.0007,0.0,0.0,1.0,0.5874,1.0,1.0,0.0,0.0005,0.0,0.0,0.0,0.2345,1.0,1.0,0.0,0.0005,0.0,0.0,0.0,0.0629,1.0,1.0,0.0,0.0007,0.0,0.0,0.0,0.0156,1.0,1.0,0.0,0.0012,0.0,0.0,0.0,0.0038,1.0,1.0,0.0,0.0035,0.0,0.0,0.0,0.0011
NG_CF,LSTMFCN,61,1,0,11.6724,0.4375,0.4,0.9647,20.6577,3.8097,0.5322,1.0,0.9573,0.0,0.0039,1.0,0.5322,1.0,0.9998,1.0,0.9768,0.0,0.0023,1.0,0.6071,1.0,0.9992,1.0,0.9942,0.0,0.0015,0.0,0.333,1.0,0.9968,1.0,0.9999,0.0,0.0011,0.0,0.1211,1.0,0.9856,1.0,1.0,0.0,0.0007,0.0,0.0,1.0,0.919,1.0,1.0,0.0,0.0004,0.0,0.0,1.0,0.5411,1.0,1.0,0.0,0.0001,0.0,0.0,0.0,0.1445,1.0,1.0,0.0,0.0,0.0,0.0,0.0,0.0405,1.0,1.0,0.0,0.0,0.0,0.0,0.0,0.013,1.0,1.0,0.0,0.0001,0.0,0.0,0.0,0.0031,1.0,1.0,0.0,0.0002,0.0,0.0,0.0,0.0008
NG_CF,LSTMFCN,65,0,1,11.7694,0.4271,0.3,1.4154,22.3501,3.6475,0.5161,1.0,0.9409,1.0,1.0,1.0,0.5161,0.0,0.0,1.0,0.95,1.0,0.9999,1.0,0.5913,0.0,0.0,1.0,0.9829,1.0,0.9995,1.0,0.9042,0.0,0.0,1.0,0.8207,1.0,0.9942,1.0,0.9966,0.0,0.0,0.0,0.0012,1.0,0.843,1.0,0.9998,0.0,0.0001,0.0,0.0,0.0,0.1079,1.0,1.0,0.0,0.0002,0.0,0.0,0.0,0.0038,1.0,1.0,0.0,0.0012,0.0,0.0,0.0,0.0002,1.0,1.0,0.0,0.0069,0.0,0.0,0.0,0.0,1.0,1.0,0.0,0.1024,0.0,0.0,0.0,0.0,1.0,1.0,1.0,0.8809,0.0,0.0,0.0,0.0,1.0,1.0,1.0,0.9978
NG_CF,LSTMFCN,47,1,0,6.0871,0.6458,0.5,0.4919,4.7745,0.9596,0.5053,1.0,0.6632,0.0,0.0001,1.0,0.5053,1.0,0.9999,1.0,0.6354,0.0,0.0001,1.0,0.6271,1.0,0.9999,1.0,0.7426,0.0,0.0001,1.0,0.5308,1.0,0.9998,1.0,0.7934,0.0,0.0001,0.0,0.037,1.0,0.9986,1.0,0.9609,0.0,0.0001,0.0,0.0009,1.0,0.9543,1.0,0.9987,0.0,0.0001,0.0,0.0001,0.0,0.3057,1.0,1.0,0.0,0.0001,0.0,0.0,0.0,0.0333,1.0,1.0,0.0,0.0001,0.0,0.0,0.0,0.0073,1.0,1.0,0.0,0.0001,0.0,0.0,0.0,0.0023,1.0,1.0,0.0,0.0004,0.0,0.0,0.0,0.0013,1.0,1.0,0.0,0.0021,0.0,0.0,0.0,0.001
NG_CF,LSTMFCN,49,1,0,0.838,0.9271,0.9,0.295,1.6098,0.7548,0.704,1.0,0.8042,0.0,0.0003,1.0,0.704,1.0,0.9999,1.0,0.9222,0.0,0.0001,1.0,0.5677,1.0,0.9997,1.0,0.9768,0.0,0.0,0.0,0.0063,1.0,0.9977,1.0,0.9997,0.0,0.0,0.0,0.0001,1.0,0.9729,1.0,1.0,0.0,0.0,0.0,0.0,1.0,0.6908,1.0,1.0,0.0,0.0001,0.0,0.0,0.0,0.097,1.0,1.0,0.0,0.0002,0.0,0.0,0.0,0.0076,1.0,1.0,0.0,0.0004,0.0,0.0,0.0,0.0016,1.0,1.0,0.0,0.0004,0.0,0.0,0.0,0.0004,1.0,1.0,0.0,0.0004,0.0,0.0,0.0,0.0001,1.0,1.0,0.0,0.0006,0.0,0.0,0.0,0.0
NG_CF,LSTMFCN,7,1,0,21.5866,0.3958,0.4,1.0664,15.5507,2.4349,0.7714,1.0,0.9923,0.0,0.0066,1.0,0.7714,1.0,0.9997,1.0,0.9973,0.0,0.0026,1.0,0.8109,1.0,0.997,1.0,0.9996,0.0,0.0016,0.0,0.0274,1.0,0.9696,1.0,1.0,0.0,0.0027,0.0,0.003,0.0,0.3671,1.0,1.0,0.0,0.0195,0.0,0.0,0.0,0.0168,1.0,1.0,0.0,0.269,0.0,0.0,0.0,0.0015,1.0,1.0,1.0,0.9176,0.0,0.0,0.0,0.0003,1.0,1.0,1.0,0.9932,0.0,0.0,0.0,0.0001,1.0,1.0,1.0,0.9986,0.0,0.0,0.0,0.0001,1.0,1.0,1.0,0.9997,0.0,0.0,0.0,0.0,1.0,1.0,1.0,0.9999,0.0,0.0,0.0,0.0
NG_CF,LSTMFCN,97,0,1,2.8035,0.8646,0.8,1.3827,10.0909,3.8609,0.8275,1.0,0.9084,1.0,1.0,1.0,0.8275,0.0,0.0001,1.0,0.8636,1.0,0.9999,0.0,0.4664,0.0,0.0,1.0,0.9504,1.0,0.9996,0.0,0.4534,0.0,0.0,1.0,0.5304,1.0,0.9967,1.0,0.6751,0.0,0.0,0.0,0.0001,1.0,0.9412,1.0,1.0,0.0,0.0,0.0,0.0,0.0,0.4367,1.0,1.0,0.0,0.0,0.0,0.0,0.0,0.0986,1.0,1.0,0.0,0.0,0.0,0.0,0.0,0.0314,1.0,1.0,0.0,0.0,0.0,0.0,0.0,0.0131,1.0,1.0,0.0,0.0002,0.0,0.0,0.0,0.0082,1.0,1.0,0.0,0.0013,0.0,0.0,0.0,0.0062,1.0,1.0,0.0,0.0146
NG_CF,LSTMFCN,59,0,1,3.8983,0.7396,0.6,0.596,5.2279,1.2797,0.5115,1.0,0.8947,1.0,0.9999,1.0,0.5115,0.0,0.0004,1.0,0.9293,1.0,0.9998,0.0,0.2581,0.0,0.0002,0.0,0.4126,1.0,0.9988,1.0,0.8848,0.0,0.0001,0.0,0.0255,1.0,0.9681,1.0,0.9903,0.0,0.0001,0.0,0.0213,0.0,0.3856,1.0,0.9954,0.0,0.0001,0.0,0.0,0.0,0.0274,1.0,1.0,0.0,0.0007,0.0,0.0,0.0,0.0039,1.0,1.0,0.0,0.0078,0.0,0.0,0.0,0.001,1.0,1.0,0.0,0.1373,0.0,0.0,0.0,0.0004,1.0,1.0,1.0,0.7691,0.0,0.0,0.0,0.0002,1.0,1.0,1.0,0.9765,0.0,0.0,0.0,0.0001,1.0,1.0,1.0,0.9971
NG_CF,LSTMFCN,95,1,0,2.988,0.8438,0.7,0.7105,5.1395,1.432,0.5245,1.0,0.9915,0.0,0.0077,1.0,0.5245,1.0,0.9997,1.0,0.994,0.0,0.0009,0.0,0.477,1.0,0.9983,1.0,0.9998,0.0,0.0001,0.0,0.1236,1.0,0.9824,1.0,1.0,0.0,0.0,0.0,0.0001,1.0,0.5654,1.0,1.0,0.0,0.0,0.0,0.0,0.0,0.0329,1.0,1.0,0.0,0.0,0.0,0.0,0.0,0.0019,1.0,1.0,0.0,0.0,0.0,0.0,0.0,0.0003,1.0,1.0,0.0,0.0,0.0,0.0,0.0,0.0001,1.0,1.0,0.0,0.0,0.0,0.0,0.0,0.0,1.0,1.0,0.0,0.0,0.0,0.0,0.0,0.0,1.0,1.0,0.0,0.0,0.0,0.0,0.0,0.0
NG_CF,LSTMFCN,13,0,1,14.0193,0.4271,0.3,1.2567,18.2362,3.0816,0.6488,1.0,0.9961,1.0,1.0,1.0,0.6488,0.0,0.0,1.0,0.9931,1.0,1.0,0.0,0.4081,0.0,0.0,1.0,0.9948,1.0,0.9999,1.0,0.9186,0.0,0.0,1.0,0.6404,1.0,0.9999,1.0,0.7306,0.0,0.0,0.0,0.0074,1.0,0.9996,1.0,0.9045,0.0,0.0,0.0,0.0,1.0,0.9965,1.0,1.0,0.0,0.0,0.0,0.0,1.0,0.9587,1.0,1.0,0.0,0.0,0.0,0.0,1.0,0.6085,1.0,1.0,0.0,0.0,0.0,0.0,0.0,0.1344,1.0,1.0,0.0,0.0001,0.0,0.0,0.0,0.031,1.0,1.0,0.0,0.0002,0.0,0.0,0.0,0.0109,1.0,1.0,0.0,0.0009
NG_CF,LSTMFCN,1,1,0,22.3954,0.4062,0.4,1.8105,19.5537,3.1171,0.7403,1.0,0.9988,0.0,0.005,1.0,0.7403,1.0,0.9998,1.0,0.9997,0.0,0.0026,0.0,0.1985,1.0,0.9982,1.0,0.9998,0.0,0.0015,0.0,0.1191,1.0,0.9905,1.0,1.0,0.0,0.0009,0.0,0.0004,1.0,0.6809,1.0,1.0,0.0,0.0024,0.0,0.0,0.0,0.0453,1.0,1.0,0.0,0.015,0.0,0.0,0.0,0.0026,1.0,1.0,0.0,0.0943,0.0,0.0,0.0,0.0004,1.0,1.0,1.0,0.5524,0.0,0.0,0.0,0.0002,1.0,1.0,1.0,0.9615,0.0,0.0,0.0,0.0001,1.0,1.0,1.0,0.998,0.0,0.0,0.0,0.0001,1.0,1.0,1.0,0.9998,0.0,0.0,0.0,0.0001
NG_CF,LSTMFCN,31,1,0,3.3246,0.8125,0.7,0.8978,5.3116,1.6141,0.5776,1.0,0.9699,0.0,0.0058,1.0,0.5776,1.0,0.9996,1.0,0.9637,0.0,0.0037,0.0,0.1147,1.0,0.9975,1.0,0.9986,0.0,0.0028,0.0,0.0505,1.0,0.983,1.0,0.9999,0.0,0.0022,0.0,0.0002,1.0,0.8992,1.0,1.0,0.0,0.0023,0.0,0.0,1.0,0.5674,1.0,1.0,0.0,0.0015,0.0,0.0,0.0,0.1254,1.0,1.0,0.0,0.0005,0.0,0.0,0.0,0.013,1.0,1.0,0.0,0.0003,0.0,0.0,0.0,0.0026,1.0,1.0,0.0,0.0003,0.0,0.0,0.0,0.0009,1.0,1.0,0.0,0.0008,0.0,0.0,0.0,0.0003,1.0,1.0,0.0,0.0053,0.0,0.0,0.0,0.0001
NG_CF,LSTMFCN,27,1,0,3.3926,0.7917,0.7,1.2858,9.6674,2.4905,0.6,1.0,0.9646,0.0,0.0019,1.0,0.6,1.0,0.9997,1.0,0.9355,0.0,0.0007,1.0,0.6493,1.0,0.9989,1.0,0.9996,0.0,0.0004,0.0,0.1163,1.0,0.9946,1.0,0.9974,0.0,0.0004,0.0,0.0037,1.0,0.6775,1.0,1.0,0.0,0.0008,0.0,0.0,0.0,0.0088,1.0,1.0,0.0,0.001,0.0,0.0,0.0,0.0004,1.0,1.0,0.0,0.0007,0.0,0.0,0.0,0.0001,1.0,1.0,0.0,0.0007,0.0,0.0,0.0,0.0,1.0,1.0,0.0,0.0012,0.0,0.0,0.0,0.0,1.0,1.0,0.0,0.003,0.0,0.0,0.0,0.0,1.0,1.0,0.0,0.01,0.0,0.0,0.0,0.0
NG_CF,LSTMFCN,9,0,1,13.3342,0.4583,0.4,0.8259,12.1689,2.7152,0.5226,1.0,0.9508,1.0,0.9999,1.0,0.5226,0.0,0.0001,1.0,0.9656,1.0,0.9998,0.0,0.4064,0.0,0.0,1.0,0.9168,1.0,0.9996,0.0,0.2305,0.0,0.0,0.0,0.102,1.0,0.9946,1.0,0.9644,0.0,0.0,0.0,0.0003,1.0,0.5351,1.0,0.9996,0.0,0.0,0.0,0.0,0.0,0.0295,1.0,1.0,0.0,0.0,0.0,0.0,0.0,0.0058,1.0,1.0,0.0,0.0,0.0,0.0,0.0,0.002,1.0,1.0,0.0,0.0001,0.0,0.0,0.0,0.0009,1.0,1.0,0.0,0.0003,0.0,0.0,0.0,0.0005,1.0,1.0,0.0,0.0036,0.0,0.0,0.0,0.0004,1.0,1.0,0.0,0.0625
NG_CF,LSTMFCN,16,1,0,20.3863,0.1979,0.1,2.8302,45.7385,6.1974,0.9952,1.0,0.9995,0.0,0.0941,1.0,0.9952,1.0,0.9998,1.0,0.9997,0.0,0.0212,1.0,0.9753,1.0,0.9982,1.0,0.9998,0.0,0.0122,1.0,0.9783,1.0,0.9774,1.0,1.0,0.0,0.0106,0.0,0.0007,1.0,0.5881,1.0,1.0,0.0,0.0109,0.0,0.0,0.0,0.0332,1.0,1.0,0.0,0.005,0.0,0.0,0.0,0.0026,1.0,1.0,0.0,0.0012,0.0,0.0,0.0,0.0006,1.0,1.0,0.0,0.0004,0.0,0.0,0.0,0.0001,1.0,1.0,0.0,0.0003,0.0,0.0,0.0,0.0,1.0,1.0,0.0,0.0005,0.0,0.0,0.0,0.0,1.0,1.0,0.0,0.0009,0.0,0.0,0.0,0.0
NG_CF,LSTMFCN,60,0,1,13.5848,0.3229,0.2,3.4115,46.3413,7.6429,0.5958,1.0,0.9994,1.0,0.9999,1.0,0.5958,0.0,0.001,1.0,0.9988,1.0,0.9979,1.0,0.7745,0.0,0.0001,0.0,0.4731,1.0,0.9444,1.0,0.9489,0.0,0.0,0.0,0.0002,0.0,0.2627,1.0,0.9906,0.0,0.0,0.0,0.0,0.0,0.0156,1.0,1.0,0.0,0.0,0.0,0.0,0.0,0.0016,1.0,1.0,0.0,0.0,0.0,0.0,0.0,0.0003,1.0,1.0,0.0,0.0,0.0,0.0,0.0,0.0001,1.0,1.0,0.0,0.0,0.0,0.0,0.0,0.0,1.0,1.0,0.0,0.0,0.0,0.0,0.0,0.0,1.0,1.0,0.0,0.0001,0.0,0.0,0.0,0.0,1.0,1.0,0.0,0.0001
NG_CF,LSTMFCN,15,1,0,9.3398,0.5521,0.5,1.3457,12.3145,2.3533,0.5016,1.0,0.9573,0.0,0.0004,1.0,0.5016,1.0,0.9998,1.0,0.9139,0.0,0.0001,1.0,0.6027,1.0,0.9997,1.0,0.9917,0.0,0.0001,1.0,0.5754,1.0,0.999,1.0,0.9988,0.0,0.0001,0.0,0.0036,1.0,0.9894,1.0,0.9998,0.0,0.0001,0.0,0.0,1.0,0.6746,1.0,1.0,0.0,0.0003,0.0,0.0016,0.0,0.077,1.0,1.0,0.0,0.0004,0.0,0.0,0.0,0.014,1.0,1.0,0.0,0.0008,0.0,0.0,0.0,0.0047,1.0,1.0,0.0,0.0026,0.0,0.0,0.0,0.002,1.0,1.0,0.0,0.0117,0.0,0.0,0.0,0.0014,1.0,1.0,0.0,0.0606,0.0,0.0,0.0,0.0008
NG_CF,LSTMFCN,98,0,1,1.7952,0.8646,0.9,3.7885,12.7454,5.1468,0.9953,1.0,0.7568,1.0,0.9934,1.0,0.9953,0.0,0.0094,1.0,0.6866,1.0,0.9745,1.0,0.9954,0.0,0.0025,0.0,0.0111,1.0,0.7592,1.0,0.9977,0.0,0.0007,0.0,0.0322,0.0,0.1384,1.0,1.0,0.0,0.0004,0.0,0.0,0.0,0.0122,1.0,1.0,0.0,0.0004,0.0,0.0,0.0,0.0018,1.0,1.0,0.0,0.0005,0.0,0.0,0.0,0.0004,1.0,1.0,0.0,0.0004,0.0,0.0,0.0,0.0001,1.0,1.0,0.0,0.0003,0.0,0.0,0.0,0.0001,1.0,1.0,0.0,0.0002,0.0,0.0,0.0,0.0,1.0,1.0,0.0,0.0002,0.0,0.0,0.0,0.0,1.0,1.0,0.0,0.0002
NG_CF,LSTMFCN,34,1,0,7.1834,0.6875,0.7,0.7872,7.4347,1.7066,0.6194,1.0,0.6481,0.0,0.0003,1.0,0.6194,1.0,0.9997,1.0,0.8559,0.0,0.0,0.0,0.1517,1.0,0.9986,1.0,0.8061,0.0,0.0,0.0,0.0049,1.0,0.9954,1.0,0.998,0.0,0.0,0.0,0.0008,1.0,0.8664,1.0,1.0,0.0,0.0,0.0,0.0,0.0,0.082,1.0,1.0,0.0,0.0,0.0,0.0,0.0,0.0037,1.0,1.0,0.0,0.0,0.0,0.0,0.0,0.0004,1.0,1.0,0.0,0.0001,0.0,0.0,0.0,0.0001,1.0,1.0,0.0,0.0001,0.0,0.0,0.0,0.0,1.0,1.0,0.0,0.0001,0.0,0.0,0.0,0.0,1.0,1.0,0.0,0.0002,0.0,0.0,0.0,0.0
NG_CF,LSTMFCN,14,0,1,11.003,0.4062,0.3,3.0069,38.6717,6.3296,0.5006,1.0,1.0,1.0,1.0,1.0,0.5006,0.0,0.0,1.0,0.9999,1.0,1.0,0.0,0.2883,0.0,0.0,1.0,0.9997,1.0,1.0,1.0,0.7393,0.0,0.0,1.0,0.998,1.0,1.0,1.0,0.8174,0.0,0.0,0.0,0.1686,1.0,1.0,1.0,0.9997,0.0,0.0,0.0,0.0,1.0,0.9999,1.0,0.9985,0.0,0.0,0.0,0.0,1.0,0.9994,1.0,1.0,0.0,0.0,0.0,0.0,1.0,0.9943,1.0,1.0,0.0,0.0,0.0,0.0,1.0,0.961,1.0,1.0,0.0,0.0,0.0,0.0,1.0,0.7764,1.0,1.0,0.0,0.0002,0.0,0.0,0.0,0.3882,1.0,1.0,0.0,0.0037
NG_CF,LSTMFCN,66,1,0,12.9471,0.4896,0.5,2.1032,18.6795,3.1149,0.7862,1.0,0.9928,0.0,0.0064,1.0,0.7862,1.0,0.9998,1.0,0.9949,0.0,0.0042,1.0,0.6501,1.0,0.9989,1.0,0.9993,0.0,0.0027,0.0,0.1563,1.0,0.9954,1.0,0.9998,0.0,0.0018,0.0,0.0028,1.0,0.9203,1.0,1.0,0.0,0.0012,0.0,0.0,0.0,0.2294,1.0,1.0,0.0,0.001,0.0,0.0,0.0,0.0139,1.0,1.0,0.0,0.0008,0.0,0.0,0.0,0.0009,1.0,1.0,0.0,0.0005,0.0,0.0,0.0,0.0001,1.0,1.0,0.0,0.0003,0.0,0.0,0.0,0.0,1.0,1.0,0.0,0.0003,0.0,0.0,0.0,0.0,1.0,1.0,0.0,0.0006,0.0,0.0,0.0,0.0
NG_CF,LSTMFCN,53,0,1,11.0485,0.4167,0.3,1.0232,13.9595,2.6464,0.5999,1.0,0.9813,1.0,0.9999,1.0,0.5999,0.0,0.0001,1.0,0.993,1.0,0.9999,1.0,0.5475,0.0,0.0,1.0,0.8101,1.0,0.9998,1.0,0.9645,0.0,0.0,0.0,0.2003,1.0,0.9987,1.0,0.9879,0.0,0.0,0.0,0.0001,1.0,0.9584,1.0,1.0,0.0,0.0,0.0,0.0,0.0,0.3183,1.0,1.0,0.0,0.0001,0.0,0.0,0.0,0.0353,1.0,1.0,0.0,0.0001,0.0,0.0,0.0,0.0045,1.0,1.0,0.0,0.0002,0.0,0.0,0.0,0.0011,1.0,1.0,0.0,0.0011,0.0,0.0,0.0,0.0004,1.0,1.0,0.0,0.0156,0.0,0.0,0.0,0.0003,1.0,1.0,0.0,0.2214
NG_CF,LSTMFCN,10,0,1,1.935,0.8229,0.7,0.3566,2.6478,0.79,0.8265,1.0,0.5389,1.0,0.9948,1.0,0.8265,0.0,0.0117,0.0,0.0952,1.0,0.9417,1.0,0.8948,0.0,0.0015,0.0,0.0022,0.0,0.2363,1.0,0.992,0.0,0.0002,0.0,0.0013,0.0,0.0179,1.0,1.0,0.0,0.0,0.0,0.0,0.0,0.0021,1.0,1.0,0.0,0.0,0.0,0.0,0.0,0.0003,1.0,1.0,0.0,0.0,0.0,0.0,0.0,0.0001,1.0,1.0,0.0,0.0,0.0,0.0,0.0,0.0,1.0,1.0,0.0,0.0,0.0,0.0,0.0,0.0,1.0,1.0,0.0,0.0,0.0,0.0,0.0,0.0,1.0,1.0,0.0,0.0,0.0,0.0,0.0,0.0,1.0,1.0,0.0,0.0
NG_CF,LSTMFCN,87,0,1,3.664,0.8125,0.8,1.0555,7.4469,2.1783,0.61,1.0,0.9347,1.0,0.9999,1.0,0.61,0.0,0.0001,1.0,0.9683,1.0,0.9999,1.0,0.5558,0.0,0.0,1.0,0.7247,1.0,0.9998,1.0,0.8535,0.0,0.0,1.0,0.626,1.0,0.9994,1.0,0.6917,0.0,0.0,0.0,0.0057,1.0,0.9948,1.0,0.9999,0.0,0.0,0.0,0.0,1.0,0.9438,1.0,1.0,0.0,0.0001,0.0,0.0,1.0,0.5632,1.0,1.0,0.0,0.0001,0.0,0.0,0.0,0.156,1.0,1.0,0.0,0.0005,0.0,0.0,0.0,0.0387,1.0,1.0,0.0,0.0031,0.0,0.0,0.0,0.0124,1.0,1.0,0.0,0.025,0.0,0.0,0.0,0.0054,1.0,1.0,0.0,0.118
NG_CF,LSTMFCN,67,1,0,4.6717,0.7604,0.6,1.0071,9.4677,2.4443,0.5261,1.0,0.9731,0.0,0.0022,1.0,0.5261,1.0,0.9998,1.0,0.9837,0.0,0.0015,0.0,0.1515,1.0,0.9992,1.0,0.9974,0.0,0.0018,0.0,0.0483,1.0,0.991,1.0,0.9999,0.0,0.0085,0.0,0.0001,1.0,0.6548,1.0,1.0,0.0,0.1146,0.0,0.0,0.0,0.0204,1.0,1.0,0.0,0.4172,0.0,0.0,0.0,0.0012,1.0,1.0,1.0,0.6681,0.0,0.0,0.0,0.0001,1.0,1.0,1.0,0.8449,0.0,0.0,0.0,0.0,1.0,1.0,1.0,0.9256,0.0,0.0,0.0,0.0,1.0,1.0,1.0,0.9702,0.0,0.0,0.0,0.0,1.0,1.0,1.0,0.9927,0.0,0.0,0.0,0.0
NG_CF,LSTMFCN,8,1,0,1.7222,0.8438,0.7,0.5584,4.5654,1.3284,0.5004,1.0,0.9812,0.0,0.0098,1.0,0.5004,1.0,0.9993,1.0,0.9922,0.0,0.0012,0.0,0.135,1.0,0.9956,1.0,0.9747,0.0,0.0001,0.0,0.0187,1.0,0.9352,1.0,1.0,0.0,0.0,0.0,0.0005,0.0,0.2761,1.0,1.0,0.0,0.0,0.0,0.0,0.0,0.014,1.0,1.0,0.0,0.0,0.0,0.0,0.0,0.0011,1.0,1.0,0.0,0.0,0.0,0.0,0.0,0.0002,1.0,1.0,0.0,0.0,0.0,0.0,0.0,0.0001,1.0,1.0,0.0,0.0,0.0,0.0,0.0,0.0,1.0,1.0,0.0,0.0,0.0,0.0,0.0,0.0,1.0,1.0,0.0,0.0,0.0,0.0,0.0,0.0
