Method,Model,Sample_Index,Original_Class,Counterfactual_Class,Generation_Time,Tp_Sparsity,Seg_Sparsity,DTW,L1,L2,CF_Conf,Orig_Rob_Gauss_eps0.00,Orig_Conf_Gauss_eps0.00,Orig_Rob_Adv_eps0.00,Orig_Conf_Adv_eps0.00,CF_Rob_Gauss_eps0.00,CF_Conf_Gauss_eps0.00,CF_Rob_Adv_eps0.00,CF_Conf_Adv_eps0.00,Orig_Rob_Gauss_eps0.20,Orig_Conf_Gauss_eps0.20,Orig_Rob_Adv_eps0.20,Orig_Conf_Adv_eps0.20,CF_Rob_Gauss_eps0.20,CF_Conf_Gauss_eps0.20,CF_Rob_Adv_eps0.20,CF_Conf_Adv_eps0.20,Orig_Rob_Gauss_eps0.40,Orig_Conf_Gauss_eps0.40,Orig_Rob_Adv_eps0.40,Orig_Conf_Adv_eps0.40,CF_Rob_Gauss_eps0.40,CF_Conf_Gauss_eps0.40,CF_Rob_Adv_eps0.40,CF_Conf_Adv_eps0.40,Orig_Rob_Gauss_eps0.60,Orig_Conf_Gauss_eps0.60,Orig_Rob_Adv_eps0.60,Orig_Conf_Adv_eps0.60,CF_Rob_Gauss_eps0.60,CF_Conf_Gauss_eps0.60,CF_Rob_Adv_eps0.60,CF_Conf_Adv_eps0.60,Orig_Rob_Gauss_eps0.80,Orig_Conf_Gauss_eps0.80,Orig_Rob_Adv_eps0.80,Orig_Conf_Adv_eps0.80,CF_Rob_Gauss_eps0.80,CF_Conf_Gauss_eps0.80,CF_Rob_Adv_eps0.80,CF_Conf_Adv_eps0.80,Orig_Rob_Gauss_eps1.00,Orig_Conf_Gauss_eps1.00,Orig_Rob_Adv_eps1.00,Orig_Conf_Adv_eps1.00,CF_Rob_Gauss_eps1.00,CF_Conf_Gauss_eps1.00,CF_Rob_Adv_eps1.00,CF_Conf_Adv_eps1.00,Orig_Rob_Gauss_eps1.20,Orig_Conf_Gauss_eps1.20,Orig_Rob_Adv_eps1.20,Orig_Conf_Adv_eps1.20,CF_Rob_Gauss_eps1.20,CF_Conf_Gauss_eps1.20,CF_Rob_Adv_eps1.20,CF_Conf_Adv_eps1.20,Orig_Rob_Gauss_eps1.40,Orig_Conf_Gauss_eps1.40,Orig_Rob_Adv_eps1.40,Orig_Conf_Adv_eps1.40,CF_Rob_Gauss_eps1.40,CF_Conf_Gauss_eps1.40,CF_Rob_Adv_eps1.40,CF_Conf_Adv_eps1.40,Orig_Rob_Gauss_eps1.60,Orig_Conf_Gauss_eps1.60,Orig_Rob_Adv_eps1.60,Orig_Conf_Adv_eps1.60,CF_Rob_Gauss_eps1.60,CF_Conf_Gauss_eps1.60,CF_Rob_Adv_eps1.60,CF_Conf_Adv_eps1.60,Orig_Rob_Gauss_eps1.80,Orig_Conf_Gauss_eps1.80,Orig_Rob_Adv_eps1.80,Orig_Conf_Adv_eps1.80,CF_Rob_Gauss_eps1.80,CF_Conf_Gauss_eps1.80,CF_Rob_Adv_eps1.80,CF_Conf_Adv_eps1.80,Orig_Rob_Gauss_eps2.00,Orig_Conf_Gauss_eps2.00,Orig_Rob_Adv_eps2.00,Orig_Conf_Adv_eps2.00,CF_Rob_Gauss_eps2.00,CF_Conf_Gauss_eps2.00,CF_Rob_Adv_eps2.00,CF_Conf_Adv_eps2.00
NG_CF,LSTMFCN,1145,0,3,32.2836,0.2714,0.2,1.5624,51.7616,6.2541,0.5737,1.0,0.9941,1.0,0.8681,1.0,0.5737,0.0,0.0037,1.0,0.996,1.0,0.9205,0.0,0.0339,0.0,0.0018,1.0,0.9999,1.0,0.9778,0.0,0.0001,0.0,0.0008,1.0,0.9999,1.0,0.9891,0.0,0.0001,0.0,0.0003,1.0,0.9999,1.0,0.9936,0.0,0.0,0.0,0.0001,1.0,0.9992,1.0,0.9957,0.0,0.0,0.0,0.0001,1.0,0.9921,1.0,0.997,0.0,0.0001,0.0,0.0001,0.0,0.1042,1.0,0.9983,0.0,0.0001,0.0,0.0,0.0,0.0052,1.0,0.9988,0.0,0.0001,0.0,0.0,0.0,0.0004,1.0,0.9991,0.0,0.0,0.0,0.0,0.0,0.0118,1.0,0.9993,0.0,0.0,0.0,0.0
NG_CF,LSTMFCN,815,0,3,41.3998,0.15,0.0,2.7324,53.5106,6.0693,0.589,1.0,0.9995,1.0,0.9909,1.0,0.589,0.0,0.0184,1.0,0.9997,1.0,0.995,0.0,0.0995,0.0,0.0023,1.0,1.0,1.0,0.9963,0.0,0.0016,0.0,0.0009,1.0,1.0,1.0,0.9939,0.0,0.0001,0.0,0.0009,1.0,0.9999,1.0,0.9839,0.0,0.0,0.0,0.0016,1.0,0.9973,1.0,0.9673,0.0,0.0001,0.0,0.0023,1.0,0.9979,1.0,0.9627,0.0,0.0012,0.0,0.0023,1.0,0.5814,1.0,0.9737,0.0,0.0001,0.0,0.001,0.0,0.0222,1.0,0.9864,0.0,0.0,0.0,0.0004,0.0,0.0932,1.0,0.9934,0.0,0.0,0.0,0.0002,0.0,0.0004,1.0,0.9963,0.0,0.0,0.0,0.0001
NG_CF,LSTMFCN,1079,0,1,42.8871,0.1357,0.0,4.5253,57.045,7.0064,0.4039,1.0,0.927,1.0,0.9972,1.0,0.4039,0.0,0.0003,1.0,0.9837,1.0,0.9972,0.0,0.1064,0.0,0.0,1.0,0.9999,1.0,0.9989,0.0,0.0094,0.0,0.0,1.0,1.0,1.0,0.9995,0.0,0.0012,0.0,0.0,1.0,1.0,1.0,0.9997,0.0,0.0014,0.0,0.0,1.0,1.0,1.0,0.9998,0.0,0.0341,0.0,0.0,1.0,0.9986,1.0,0.9999,0.0,0.0005,0.0,0.0,1.0,0.9968,1.0,0.9999,0.0,0.0025,0.0,0.0,0.0,0.0461,1.0,0.9999,0.0,0.0,0.0,0.0,0.0,0.0152,1.0,0.9999,0.0,0.0001,0.0,0.0,0.0,0.0031,1.0,0.9998,0.0,0.0002,0.0,0.0
NG_CF,LSTMFCN,1546,0,0,35.5702,0.2214,0.2,3.2614,35.6277,4.507,0.4913,1.0,0.9998,1.0,0.954,1.0,0.4913,1.0,0.8244,1.0,1.0,1.0,0.9762,1.0,0.9296,1.0,0.9593,1.0,1.0,1.0,0.9952,1.0,0.9999,1.0,0.9864,1.0,1.0,1.0,0.9977,1.0,1.0,1.0,0.99,1.0,1.0,1.0,0.9975,1.0,1.0,1.0,0.9855,1.0,1.0,1.0,0.9974,1.0,1.0,1.0,0.9881,1.0,0.9999,1.0,0.9976,1.0,0.9998,1.0,0.9943,1.0,0.9762,1.0,0.9981,1.0,0.8739,1.0,0.9974,0.0,0.1646,1.0,0.9986,0.0,0.3923,1.0,0.9984,0.0,0.0003,1.0,0.9989,0.0,0.1354,1.0,0.999,0.0,0.0113,1.0,0.999,0.0,0.0147,1.0,0.9992
NG_CF,LSTMFCN,4250,1,2,47.0387,0.0786,0.0,4.1415,56.934,6.3691,0.5079,1.0,0.9491,0.0,0.0008,1.0,0.5079,0.0,0.2614,1.0,0.9152,0.0,0.0009,1.0,0.3684,0.0,0.0093,1.0,0.985,0.0,0.0001,0.0,0.0634,0.0,0.0005,1.0,0.8872,0.0,0.0,0.0,0.0254,0.0,0.0002,0.0,0.3313,0.0,0.0,0.0,0.0014,0.0,0.0,1.0,0.9825,0.0,0.0,0.0,0.0015,0.0,0.0,1.0,0.9558,0.0,0.0,0.0,0.0148,0.0,0.0,0.0,0.4036,0.0,0.0,0.0,0.0051,0.0,0.0,1.0,0.6731,0.0,0.0001,0.0,0.0043,0.0,0.0,0.0,0.1747,0.0,0.0001,0.0,0.0025,0.0,0.0,0.0,0.1634,0.0,0.0001,0.0,0.0003,0.0,0.0
NG_CF,LSTMFCN,1811,0,3,32.6415,0.3,0.2,1.429,25.8681,3.4166,0.5488,1.0,0.9921,1.0,0.7474,1.0,0.5488,0.0,0.0002,1.0,0.9981,1.0,0.8912,0.0,0.1513,0.0,0.0001,1.0,0.9998,1.0,0.9373,0.0,0.0001,0.0,0.0001,1.0,1.0,1.0,0.9575,0.0,0.0,0.0,0.0001,1.0,0.9997,1.0,0.9752,0.0,0.0,0.0,0.0003,1.0,0.9995,1.0,0.9836,0.0,0.0001,0.0,0.0006,1.0,0.9702,1.0,0.991,0.0,0.0,0.0,0.0011,1.0,0.7696,1.0,0.9957,0.0,0.0001,0.0,0.0009,0.0,0.0343,1.0,0.9981,0.0,0.0001,0.0,0.0006,0.0,0.2289,1.0,0.9989,0.0,0.0,0.0,0.0003,0.0,0.0001,1.0,0.9992,0.0,0.0,0.0,0.0002
NG_CF,LSTMFCN,2390,0,3,35.6184,0.2286,0.2,2.4233,43.5323,4.7164,0.5411,1.0,0.9999,1.0,0.9702,1.0,0.5411,0.0,0.0002,1.0,1.0,1.0,0.9725,0.0,0.0599,0.0,0.0001,1.0,1.0,1.0,0.9781,0.0,0.0001,0.0,0.0001,1.0,1.0,1.0,0.986,0.0,0.0,0.0,0.0001,1.0,1.0,1.0,0.9893,0.0,0.0,0.0,0.0002,1.0,1.0,1.0,0.992,0.0,0.0,0.0,0.0004,1.0,0.9951,1.0,0.9937,0.0,0.0,0.0,0.0009,1.0,0.8539,1.0,0.9944,0.0,0.0001,0.0,0.0009,1.0,0.5959,1.0,0.9959,0.0,0.0005,0.0,0.0008,0.0,0.1013,1.0,0.9972,0.0,0.0001,0.0,0.0009,0.0,0.0031,1.0,0.9981,0.0,0.0,0.0,0.0008
NG_CF,LSTMFCN,2466,0,0,32.6134,0.2714,0.2,2.8156,54.0366,6.0987,0.4829,1.0,0.9998,1.0,0.955,1.0,0.4829,1.0,0.6112,1.0,0.9999,1.0,0.9704,1.0,0.9643,1.0,0.65,1.0,1.0,1.0,0.993,1.0,1.0,1.0,0.8549,1.0,1.0,1.0,0.998,1.0,1.0,1.0,0.9706,1.0,1.0,1.0,0.9984,1.0,1.0,1.0,0.9952,1.0,1.0,1.0,0.9978,1.0,1.0,1.0,0.9987,1.0,0.9995,1.0,0.9967,1.0,0.9987,1.0,0.9995,1.0,0.9984,1.0,0.9959,1.0,0.9993,1.0,0.9997,0.0,0.0042,1.0,0.9961,1.0,0.6321,1.0,0.9998,0.0,0.0075,1.0,0.9966,0.0,0.0004,1.0,0.9999,0.0,0.0111,1.0,0.9976,0.0,0.0051,1.0,0.9999
NG_CF,LSTMFCN,4188,1,1,47.5397,0.0786,0.0,2.5261,37.5656,4.9531,0.4843,1.0,0.9847,0.0,0.0002,1.0,0.4843,0.0,0.0,1.0,0.9561,0.0,0.0002,1.0,0.5408,0.0,0.0001,1.0,0.9507,0.0,0.0001,1.0,0.7115,0.0,0.0003,1.0,0.9726,0.0,0.0,1.0,0.9602,0.0,0.0003,1.0,0.9584,0.0,0.0,1.0,0.989,0.0,0.0004,1.0,0.9457,0.0,0.0,1.0,0.9514,0.0,0.0005,1.0,0.9839,0.0,0.0001,1.0,0.995,0.0,0.0006,1.0,0.7695,0.0,0.0001,1.0,0.9827,0.0,0.0008,1.0,0.8548,0.0,0.0001,1.0,0.9677,0.0,0.0009,1.0,0.8107,0.0,0.0001,0.0,0.4852,0.0,0.0011,1.0,0.9748,0.0,0.0001,0.0,0.2848,0.0,0.0012
NG_CF,LSTMFCN,1522,0,3,43.1592,0.1429,0.0,2.926,49.1317,5.7583,0.5057,1.0,0.9999,1.0,0.9722,1.0,0.5057,0.0,0.0512,1.0,1.0,1.0,0.982,0.0,0.0244,0.0,0.0081,1.0,1.0,1.0,0.9957,0.0,0.0002,0.0,0.0021,1.0,1.0,1.0,0.9975,0.0,0.0,0.0,0.0008,1.0,1.0,1.0,0.9971,0.0,0.0,0.0,0.0007,1.0,1.0,1.0,0.9966,0.0,0.0,0.0,0.0008,1.0,0.9986,1.0,0.9969,0.0,0.0,0.0,0.0008,1.0,0.9927,1.0,0.9978,0.0,0.0008,0.0,0.0005,0.0,0.0574,1.0,0.9986,0.0,0.0001,0.0,0.0003,0.0,0.0245,1.0,0.9991,0.0,0.0001,0.0,0.0002,0.0,0.1545,1.0,0.9994,0.0,0.0,0.0,0.0002
NG_CF,LSTMFCN,2077,0,3,34.4113,0.3,0.2,0.9611,31.2337,3.7014,0.4858,1.0,1.0,1.0,0.9185,1.0,0.4858,0.0,0.0211,1.0,1.0,1.0,0.7046,0.0,0.1273,0.0,0.0016,1.0,1.0,1.0,0.5282,0.0,0.0001,0.0,0.0003,1.0,1.0,1.0,0.8822,0.0,0.0,0.0,0.0001,1.0,1.0,1.0,0.9902,0.0,0.0,0.0,0.0001,1.0,0.999,1.0,0.9972,0.0,0.0,0.0,0.0001,1.0,0.9998,1.0,0.9986,0.0,0.0,0.0,0.0001,1.0,0.9672,1.0,0.9992,0.0,0.0001,0.0,0.0,0.0,0.2152,1.0,0.9995,0.0,0.0,0.0,0.0,0.0,0.0027,1.0,0.9997,0.0,0.0002,0.0,0.0,0.0,0.0035,1.0,0.9998,0.0,0.0,0.0,0.0
NG_CF,LSTMFCN,2329,0,2,40.5577,0.25,0.1,3.3555,72.5822,8.7261,0.5461,1.0,0.9964,1.0,0.9658,1.0,0.5461,0.0,0.0025,1.0,0.9986,1.0,0.892,0.0,0.0462,0.0,0.0082,1.0,0.9999,1.0,0.9034,0.0,0.0001,0.0,0.0085,1.0,0.9999,1.0,0.979,0.0,0.0,0.0,0.006,1.0,0.9999,1.0,0.994,0.0,0.0,0.0,0.0037,1.0,1.0,1.0,0.9969,0.0,0.0,0.0,0.0019,1.0,0.9951,1.0,0.998,0.0,0.0,0.0,0.001,1.0,0.9573,1.0,0.9985,0.0,0.0,0.0,0.0005,0.0,0.1301,1.0,0.9986,0.0,0.0002,0.0,0.0003,0.0,0.0648,1.0,0.9987,0.0,0.001,0.0,0.0002,0.0,0.0008,1.0,0.9987,0.0,0.0,0.0,0.0001
NG_CF,LSTMFCN,780,0,3,57.1018,0.1786,0.1,2.4886,45.4269,5.5305,0.6435,1.0,0.9986,1.0,0.9723,1.0,0.6435,0.0,0.01,1.0,0.9997,1.0,0.936,0.0,0.0221,0.0,0.0007,1.0,1.0,1.0,0.9298,0.0,0.0002,0.0,0.0002,1.0,0.9999,1.0,0.9379,0.0,0.0,0.0,0.0001,1.0,1.0,1.0,0.9552,0.0,0.0,0.0,0.0,1.0,0.9969,1.0,0.9699,0.0,0.0,0.0,0.0001,1.0,0.9983,1.0,0.9776,0.0,0.0001,0.0,0.0001,1.0,0.8457,1.0,0.9878,0.0,0.0001,0.0,0.0,0.0,0.4796,1.0,0.9943,0.0,0.0,0.0,0.0,0.0,0.1704,1.0,0.9966,0.0,0.0,0.0,0.0,0.0,0.0,1.0,0.9974,0.0,0.0,0.0,0.0
NG_CF,LSTMFCN,4091,2,1,10.1302,0.7643,0.7,1.5309,20.4282,4.8097,0.9687,1.0,0.9986,1.0,0.9159,1.0,0.9687,0.0,0.0,1.0,0.9394,0.0,0.2039,1.0,0.864,0.0,0.0,0.0,0.176,0.0,0.0033,1.0,0.942,0.0,0.0002,0.0,0.0033,0.0,0.0004,1.0,0.8236,0.0,0.0005,0.0,0.0044,0.0,0.0001,0.0,0.2904,0.0,0.0006,0.0,0.0025,0.0,0.0,1.0,0.932,0.0,0.0008,0.0,0.0016,0.0,0.0,1.0,0.9882,0.0,0.001,0.0,0.0078,0.0,0.0,1.0,0.9978,0.0,0.001,0.0,0.0078,0.0,0.0,0.0,0.4743,0.0,0.0011,0.0,0.031,0.0,0.0,0.0,0.4675,0.0,0.0013,0.0,0.0044,0.0,0.0,0.0,0.1507,0.0,0.0014
NG_CF,LSTMFCN,3135,1,2,63.8389,0.0929,0.0,1.7871,25.0178,3.5669,0.7671,1.0,0.9363,0.0,0.0004,1.0,0.7671,0.0,0.4745,1.0,0.8402,0.0,0.0001,0.0,0.0345,0.0,0.0151,1.0,0.9229,0.0,0.0,0.0,0.0257,0.0,0.0003,0.0,0.4377,0.0,0.0,0.0,0.0055,0.0,0.0,1.0,0.8908,0.0,0.0,0.0,0.0004,0.0,0.0,1.0,0.9953,0.0,0.0,0.0,0.0031,0.0,0.0,1.0,0.9956,0.0,0.0001,0.0,0.0585,0.0,0.0,1.0,0.9695,0.0,0.0001,0.0,0.0046,0.0,0.0,1.0,0.8914,0.0,0.0001,0.0,0.0,0.0,0.0,0.0,0.3743,0.0,0.0001,0.0,0.0103,0.0,0.0,0.0,0.0246,0.0,0.0,0.0,0.0003,0.0,0.0
NG_CF,LSTMFCN,3268,1,2,65.3048,0.1071,0.1,2.7409,33.1481,4.4363,0.4761,1.0,0.8242,0.0,0.0006,1.0,0.4761,0.0,0.1808,1.0,0.5918,0.0,0.0001,0.0,0.3219,0.0,0.0059,1.0,0.8289,0.0,0.0,0.0,0.1898,0.0,0.0003,1.0,0.8139,0.0,0.0,0.0,0.0189,0.0,0.0001,1.0,0.7256,0.0,0.0,0.0,0.0039,0.0,0.0,1.0,0.8965,0.0,0.0,0.0,0.0031,0.0,0.0,1.0,0.8364,0.0,0.0,0.0,0.0019,0.0,0.0,0.0,0.2974,0.0,0.0,0.0,0.0001,0.0,0.0,0.0,0.2509,0.0,0.0001,0.0,0.0039,0.0,0.0,0.0,0.1433,0.0,0.0001,0.0,0.0033,0.0,0.0,0.0,0.1103,0.0,0.0001,0.0,0.0002,0.0,0.0
NG_CF,LSTMFCN,2280,0,3,53.6323,0.2286,0.2,3.29,35.9772,4.5802,0.486,1.0,0.9999,1.0,0.9565,1.0,0.486,0.0,0.0002,1.0,1.0,1.0,0.9669,0.0,0.0214,0.0,0.0001,1.0,1.0,1.0,0.9846,0.0,0.0,0.0,0.0001,1.0,1.0,1.0,0.9924,0.0,0.0,0.0,0.0002,1.0,1.0,1.0,0.995,0.0,0.0,0.0,0.0004,1.0,1.0,1.0,0.9964,0.0,0.0,0.0,0.0008,1.0,0.9975,1.0,0.9968,0.0,0.0,0.0,0.001,1.0,0.5113,1.0,0.9967,0.0,0.0,0.0,0.0007,0.0,0.0328,1.0,0.997,0.0,0.0,0.0,0.0004,0.0,0.0159,1.0,0.9979,0.0,0.0,0.0,0.0002,0.0,0.0003,1.0,0.9985,0.0,0.0,0.0,0.0002
NG_CF,LSTMFCN,2446,0,1,31.2645,0.6143,0.6,3.8936,34.2697,5.9909,0.7252,1.0,0.9996,1.0,0.9825,1.0,0.7252,0.0,0.2052,1.0,0.9999,1.0,0.9875,0.0,0.3742,0.0,0.0003,1.0,1.0,1.0,0.9855,0.0,0.0113,0.0,0.0,1.0,1.0,1.0,0.9649,0.0,0.0038,0.0,0.0,1.0,0.9999,1.0,0.9624,0.0,0.2244,0.0,0.0,1.0,0.9989,1.0,0.9728,0.0,0.3289,0.0,0.0,1.0,0.9916,1.0,0.9845,0.0,0.0131,0.0,0.0,1.0,0.828,1.0,0.9874,0.0,0.2068,0.0,0.0,0.0,0.0472,1.0,0.9898,0.0,0.0258,0.0,0.0,0.0,0.0043,1.0,0.9902,0.0,0.0014,0.0,0.0,0.0,0.0006,1.0,0.9902,0.0,0.0365,0.0,0.0
NG_CF,LSTMFCN,4297,1,2,70.5654,0.05,0.0,3.2511,56.4709,6.5893,0.9024,1.0,0.9958,0.0,0.0001,1.0,0.9024,0.0,0.4745,1.0,0.9924,0.0,0.0002,0.0,0.0497,0.0,0.0149,1.0,0.9959,0.0,0.0002,0.0,0.0158,0.0,0.0003,1.0,0.8684,0.0,0.0001,0.0,0.0236,0.0,0.0,1.0,0.9367,0.0,0.0001,0.0,0.0045,0.0,0.0,1.0,0.9925,0.0,0.0001,0.0,0.0025,0.0,0.0,1.0,0.9969,0.0,0.0001,0.0,0.0045,0.0,0.0,1.0,0.9929,0.0,0.0001,0.0,0.0013,0.0,0.0,1.0,0.9395,0.0,0.0001,0.0,0.0048,0.0,0.0,1.0,0.5679,0.0,0.0002,0.0,0.0154,0.0,0.0,0.0,0.0988,0.0,0.0002,0.0,0.016,0.0,0.0
NG_CF,LSTMFCN,3032,1,0,11.9611,0.7214,0.7,5.2096,25.1159,5.6592,0.598,1.0,0.8898,0.0,0.0025,1.0,0.598,1.0,0.958,0.0,0.4672,0.0,0.0005,1.0,0.9664,1.0,0.9632,0.0,0.0182,0.0,0.0003,1.0,0.9995,1.0,0.9901,0.0,0.0006,0.0,0.0002,1.0,0.9996,1.0,0.9978,0.0,0.0001,0.0,0.0002,1.0,0.9996,1.0,0.999,0.0,0.0001,0.0,0.0001,1.0,0.9934,1.0,0.9993,0.0,0.0002,0.0,0.0001,1.0,0.9864,1.0,0.9994,0.0,0.0008,0.0,0.0002,0.0,0.2032,1.0,0.9995,0.0,0.002,0.0,0.0002,1.0,0.6016,1.0,0.9995,0.0,0.0011,0.0,0.0002,0.0,0.0003,1.0,0.9995,0.0,0.0013,0.0,0.0002,0.0,0.0,1.0,0.9995
NG_CF,LSTMFCN,2611,0,3,41.5785,0.2286,0.2,2.6906,37.2922,4.5054,0.554,1.0,0.9998,1.0,0.9099,1.0,0.554,0.0,0.0002,1.0,0.9999,1.0,0.8605,0.0,0.0165,0.0,0.0001,1.0,1.0,1.0,0.937,0.0,0.0003,0.0,0.0001,1.0,1.0,1.0,0.9801,0.0,0.0,0.0,0.0002,1.0,1.0,1.0,0.9922,0.0,0.0,0.0,0.0002,1.0,0.9988,1.0,0.9961,0.0,0.0,0.0,0.0003,1.0,0.9608,1.0,0.9975,0.0,0.0,0.0,0.0005,1.0,0.8123,1.0,0.9982,0.0,0.0,0.0,0.0004,1.0,0.7648,1.0,0.999,0.0,0.0,0.0,0.0003,0.0,0.3356,1.0,0.9995,0.0,0.0,0.0,0.0002,0.0,0.0001,1.0,0.9996,0.0,0.0,0.0,0.0002
NG_CF,LSTMFCN,1855,0,3,58.8826,0.1357,0.0,2.3617,54.8138,6.9909,0.4708,1.0,0.9998,1.0,0.9745,1.0,0.4708,0.0,0.0205,1.0,1.0,1.0,0.9805,0.0,0.2219,0.0,0.0027,1.0,1.0,1.0,0.9957,0.0,0.0007,0.0,0.0011,1.0,1.0,1.0,0.9985,0.0,0.0006,0.0,0.0013,1.0,1.0,1.0,0.999,0.0,0.0004,0.0,0.0019,1.0,0.9999,1.0,0.9991,0.0,0.001,0.0,0.0023,1.0,0.982,1.0,0.9991,0.0,0.0006,0.0,0.0025,1.0,0.9948,1.0,0.9993,0.0,0.0,0.0,0.0012,0.0,0.0516,1.0,0.9993,0.0,0.0001,0.0,0.0005,1.0,0.5131,1.0,0.9993,0.0,0.0,0.0,0.0002,0.0,0.0095,1.0,0.9992,0.0,0.0,0.0,0.0001
NG_CF,LSTMFCN,534,0,1,44.8399,0.1214,0.0,6.2391,78.4541,9.3639,0.5771,1.0,0.9991,1.0,0.9988,1.0,0.5771,0.0,0.0003,1.0,0.9994,1.0,0.9981,1.0,0.4485,0.0,0.0001,1.0,1.0,1.0,0.9976,0.0,0.0351,0.0,0.0,1.0,1.0,1.0,0.9973,0.0,0.0043,0.0,0.0,1.0,1.0,1.0,0.9984,0.0,0.003,0.0,0.0,1.0,0.9998,1.0,0.9992,0.0,0.0076,0.0,0.0,1.0,0.9989,1.0,0.9996,0.0,0.0257,0.0,0.0,1.0,0.9939,1.0,0.9998,0.0,0.0027,0.0,0.0,0.0,0.1523,1.0,0.9999,0.0,0.0004,0.0,0.0,0.0,0.0053,1.0,0.9999,0.0,0.0009,0.0,0.0,0.0,0.0001,1.0,0.9998,0.0,0.0001,0.0,0.0
NG_CF,LSTMFCN,3836,1,1,51.6087,0.1071,0.1,1.8804,44.2378,4.9145,0.4781,1.0,0.9804,0.0,0.011,1.0,0.4781,0.0,0.0012,1.0,0.9402,0.0,0.0048,0.0,0.3039,0.0,0.0,1.0,0.966,0.0,0.0023,1.0,0.593,0.0,0.0,1.0,0.9679,0.0,0.0007,1.0,0.5512,0.0,0.0,1.0,0.9261,0.0,0.0003,0.0,0.4046,0.0,0.0,1.0,0.8202,0.0,0.0002,1.0,0.9577,0.0,0.0,1.0,0.9899,0.0,0.0002,1.0,0.8342,0.0,0.0,1.0,0.9615,0.0,0.0002,1.0,0.9169,0.0,0.0001,0.0,0.116,0.0,0.0003,1.0,0.8877,0.0,0.0001,0.0,0.4725,0.0,0.0004,0.0,0.0992,0.0,0.0001,1.0,0.5961,0.0,0.0005,0.0,0.2424,0.0,0.0001
NG_CF,LSTMFCN,2048,0,1,20.1458,0.6143,0.6,3.2964,46.2658,8.0472,0.9839,1.0,0.9776,1.0,0.9617,1.0,0.9839,0.0,0.001,1.0,0.9866,1.0,0.9103,1.0,0.9857,0.0,0.0005,1.0,0.9996,1.0,0.9611,1.0,0.9697,0.0,0.0001,1.0,0.9965,1.0,0.9931,1.0,0.8996,0.0,0.0,1.0,0.996,1.0,0.9959,1.0,0.9962,0.0,0.0,1.0,0.9958,1.0,0.9967,1.0,0.9895,0.0,0.0,1.0,0.9871,1.0,0.9975,1.0,0.9013,0.0,0.0001,1.0,0.7223,1.0,0.9978,1.0,0.9825,0.0,0.0001,0.0,0.4608,1.0,0.9981,1.0,0.8996,0.0,0.0001,0.0,0.0048,1.0,0.9984,0.0,0.4171,0.0,0.0001,0.0,0.0,1.0,0.9987,0.0,0.327,0.0,0.0002
NG_CF,LSTMFCN,42,0,1,24.3174,0.6143,0.6,3.9907,37.0171,5.7957,0.6634,1.0,0.9996,1.0,0.9762,1.0,0.6634,0.0,0.2177,1.0,0.9996,1.0,0.9867,0.0,0.0085,0.0,0.0004,1.0,1.0,1.0,0.9922,0.0,0.0545,0.0,0.0,1.0,0.9999,1.0,0.9947,0.0,0.0463,0.0,0.0,1.0,0.9999,1.0,0.9968,0.0,0.0732,0.0,0.0,1.0,0.9984,1.0,0.9984,0.0,0.0784,0.0,0.0,1.0,0.9959,1.0,0.999,1.0,0.6456,0.0,0.0,1.0,0.605,1.0,0.9989,0.0,0.3038,0.0,0.0,0.0,0.0026,1.0,0.9981,1.0,0.6366,0.0,0.0,0.0,0.005,1.0,0.9969,0.0,0.0127,0.0,0.0,0.0,0.0043,1.0,0.9957,0.0,0.039,0.0,0.0
NG_CF,LSTMFCN,2656,1,1,47.7023,0.1143,0.1,2.0799,40.3362,4.7816,0.4467,1.0,0.9499,0.0,0.0016,1.0,0.4467,0.0,0.0001,1.0,0.8984,0.0,0.0023,1.0,0.4276,0.0,0.0,1.0,0.9621,0.0,0.0006,1.0,0.7725,0.0,0.0001,1.0,0.8023,0.0,0.0001,1.0,0.7331,0.0,0.0001,1.0,0.8191,0.0,0.0,1.0,0.5913,0.0,0.0001,1.0,0.9832,0.0,0.0,1.0,0.5896,0.0,0.0001,1.0,0.9989,0.0,0.0,1.0,0.9906,0.0,0.0001,1.0,0.8287,0.0,0.0001,1.0,0.8914,0.0,0.0001,1.0,0.9986,0.0,0.0001,1.0,0.9599,0.0,0.0001,0.0,0.0212,0.0,0.0001,1.0,0.5763,0.0,0.0001,0.0,0.1605,0.0,0.0001,1.0,0.6026,0.0,0.0001
NG_CF,LSTMFCN,4393,3,3,14.9286,0.5929,0.5,1.6559,22.9534,3.5676,0.4849,1.0,0.6709,0.0,0.1536,1.0,0.4849,0.0,0.1536,1.0,0.8481,0.0,0.1034,0.0,0.0708,0.0,0.2224,0.0,0.2809,0.0,0.0707,0.0,0.0004,0.0,0.1718,0.0,0.0004,0.0,0.0282,0.0,0.0,0.0,0.1059,0.0,0.0,0.0,0.0169,0.0,0.0001,0.0,0.0618,0.0,0.0002,0.0,0.0086,0.0,0.0,0.0,0.0286,0.0,0.001,0.0,0.0042,0.0,0.0,0.0,0.0123,0.0,0.0004,0.0,0.0037,0.0,0.0,0.0,0.0058,0.0,0.0013,0.0,0.0032,0.0,0.0001,0.0,0.0029,0.0,0.0,0.0,0.0026,0.0,0.0001,0.0,0.0011,0.0,0.0,0.0,0.0019,0.0,0.0,0.0,0.0003
NG_CF,LSTMFCN,3027,1,1,40.7452,0.1857,0.1,4.6017,58.6082,7.5036,0.4769,1.0,0.9746,0.0,0.0281,1.0,0.4769,0.0,0.0013,1.0,0.9024,0.0,0.0665,1.0,0.3653,0.0,0.0,0.0,0.0496,0.0,0.0395,0.0,0.2581,0.0,0.0,0.0,0.0074,0.0,0.0082,0.0,0.2445,0.0,0.0,0.0,0.0816,0.0,0.0039,0.0,0.4266,0.0,0.0,0.0,0.0455,0.0,0.0047,1.0,0.8944,0.0,0.0,1.0,0.9346,0.0,0.0041,1.0,0.5125,0.0,0.0,0.0,0.0117,0.0,0.0039,1.0,0.6033,0.0,0.0,0.0,0.1333,0.0,0.0032,0.0,0.461,0.0,0.0,0.0,0.0958,0.0,0.0025,1.0,0.5274,0.0,0.0,0.0,0.3345,0.0,0.002,0.0,0.1106,0.0,0.0
NG_CF,LSTMFCN,553,0,0,38.4936,0.2143,0.2,2.7672,36.6785,4.2942,0.4791,1.0,0.9999,1.0,0.9296,1.0,0.4791,1.0,0.7803,1.0,1.0,1.0,0.9502,1.0,0.919,1.0,0.9281,1.0,1.0,1.0,0.9879,1.0,0.9997,1.0,0.9625,1.0,1.0,1.0,0.9949,1.0,1.0,1.0,0.9719,1.0,1.0,1.0,0.9953,1.0,1.0,1.0,0.9785,1.0,0.9979,1.0,0.997,1.0,0.9999,1.0,0.9916,1.0,0.9985,1.0,0.9978,1.0,0.9961,1.0,0.9972,1.0,0.9113,1.0,0.9985,1.0,0.9223,1.0,0.999,0.0,0.0445,1.0,0.9991,1.0,0.5627,1.0,0.9995,0.0,0.001,1.0,0.9994,0.0,0.0356,1.0,0.9998,0.0,0.0002,1.0,0.9996,0.0,0.0042,1.0,0.9998
NG_CF,LSTMFCN,3856,1,1,46.3566,0.1071,0.1,2.6741,45.9265,5.1121,0.4863,1.0,0.9679,0.0,0.0214,1.0,0.4863,0.0,0.0004,1.0,0.9146,0.0,0.003,0.0,0.2663,0.0,0.0,1.0,0.9395,0.0,0.0011,1.0,0.6245,0.0,0.0,1.0,0.7998,0.0,0.0002,1.0,0.5294,0.0,0.0,1.0,0.712,0.0,0.0001,1.0,0.9527,0.0,0.0,1.0,0.9477,0.0,0.0001,0.0,0.3908,0.0,0.0,1.0,0.9556,0.0,0.0001,1.0,0.7045,0.0,0.0,1.0,0.9586,0.0,0.0001,1.0,0.7489,0.0,0.0001,1.0,0.9305,0.0,0.0001,1.0,0.8879,0.0,0.0001,1.0,0.7708,0.0,0.0001,1.0,0.9731,0.0,0.0001,0.0,0.4538,0.0,0.0001,1.0,0.6929,0.0,0.0001
NG_CF,LSTMFCN,3045,1,2,44.7065,0.1143,0.1,2.4569,36.6316,4.5629,0.4096,1.0,0.9678,0.0,0.0227,1.0,0.4096,0.0,0.16,1.0,0.9395,0.0,0.0026,1.0,0.5422,0.0,0.0056,1.0,0.8487,0.0,0.0003,0.0,0.0206,0.0,0.0003,1.0,0.9835,0.0,0.0,0.0,0.0253,0.0,0.0001,1.0,0.9483,0.0,0.0,0.0,0.0096,0.0,0.0,1.0,0.8134,0.0,0.0,0.0,0.0353,0.0,0.0,1.0,0.9822,0.0,0.0001,0.0,0.0019,0.0,0.0,1.0,0.9921,0.0,0.0002,0.0,0.0002,0.0,0.0,1.0,0.9913,0.0,0.0003,0.0,0.0136,0.0,0.0,1.0,0.7933,0.0,0.0005,0.0,0.0022,0.0,0.0,0.0,0.0538,0.0,0.0006,0.0,0.0005,0.0,0.0
NG_CF,LSTMFCN,2165,0,3,35.0091,0.2357,0.2,2.9367,41.7875,4.885,0.5458,1.0,0.9983,1.0,0.9292,1.0,0.5458,0.0,0.0,1.0,0.9998,1.0,0.967,0.0,0.0339,0.0,0.0,1.0,1.0,1.0,0.9938,0.0,0.0,0.0,0.0,1.0,1.0,1.0,0.9986,0.0,0.0,0.0,0.0,1.0,1.0,1.0,0.9995,0.0,0.0,0.0,0.0,1.0,0.9942,1.0,0.9997,0.0,0.0,0.0,0.0,1.0,0.9954,1.0,0.9997,0.0,0.0,0.0,0.0001,1.0,0.8448,1.0,0.9997,0.0,0.0,0.0,0.0001,0.0,0.0704,1.0,0.9997,0.0,0.0,0.0,0.0001,0.0,0.0018,1.0,0.9996,0.0,0.0,0.0,0.0001,0.0,0.0001,1.0,0.9995,0.0,0.0,0.0,0.0001
NG_CF,LSTMFCN,3584,1,1,46.5931,0.1143,0.1,2.7421,35.3115,5.0129,0.4366,1.0,0.9575,1.0,0.5457,1.0,0.4366,0.0,0.0,1.0,0.8264,0.0,0.0487,0.0,0.4,0.0,0.0,1.0,0.784,0.0,0.0017,1.0,0.6055,0.0,0.0,1.0,0.4349,0.0,0.0002,1.0,0.6361,0.0,0.0,0.0,0.338,0.0,0.0,1.0,0.7224,0.0,0.0,1.0,0.6973,0.0,0.0,0.0,0.356,0.0,0.0,1.0,0.6595,0.0,0.0,1.0,0.9222,0.0,0.0,1.0,0.9205,0.0,0.0,0.0,0.4708,0.0,0.0,1.0,0.9588,0.0,0.0,1.0,0.6346,0.0,0.0,1.0,0.5013,0.0,0.0,0.0,0.269,0.0,0.0,0.0,0.3193,0.0,0.0001,0.0,0.0671,0.0,0.0
NG_CF,LSTMFCN,2805,1,4,20.8196,0.4786,0.4,3.9534,37.6369,5.9491,0.4789,1.0,0.948,0.0,0.0011,1.0,0.4789,0.0,0.0011,1.0,0.9376,0.0,0.0039,0.0,0.4007,0.0,0.0013,1.0,0.9836,0.0,0.0018,0.0,0.107,0.0,0.0006,1.0,0.9262,0.0,0.0006,0.0,0.1281,0.0,0.0004,1.0,0.8575,0.0,0.0008,0.0,0.0275,0.0,0.0005,1.0,0.9461,0.0,0.0011,0.0,0.2066,0.0,0.0009,1.0,0.9956,0.0,0.0016,0.0,0.0862,0.0,0.0013,0.0,0.0564,0.0,0.0016,0.0,0.3423,0.0,0.0014,0.0,0.2376,0.0,0.0015,0.0,0.0767,0.0,0.0014,0.0,0.034,0.0,0.0014,1.0,0.7669,0.0,0.0014,0.0,0.2201,0.0,0.0013,1.0,0.9915,0.0,0.0014
NG_CF,LSTMFCN,886,0,3,37.5287,0.2357,0.2,4.1525,42.7607,5.7844,0.4823,1.0,0.9997,1.0,0.9206,1.0,0.4823,0.0,0.0001,1.0,1.0,1.0,0.9644,0.0,0.0148,0.0,0.0,1.0,1.0,1.0,0.9898,0.0,0.0,0.0,0.0001,1.0,1.0,1.0,0.9942,0.0,0.0,0.0,0.0001,1.0,1.0,1.0,0.9934,0.0,0.0,0.0,0.0002,1.0,0.9999,1.0,0.9936,0.0,0.0,0.0,0.0004,1.0,0.9987,1.0,0.9943,0.0,0.0,0.0,0.0005,1.0,0.9888,1.0,0.9955,0.0,0.0,0.0,0.0003,1.0,0.5942,1.0,0.9975,0.0,0.0,0.0,0.0002,0.0,0.0041,1.0,0.9986,0.0,0.0,0.0,0.0002,0.0,0.0545,1.0,0.9992,0.0,0.0,0.0,0.0001
NG_CF,LSTMFCN,2203,0,0,31.684,0.3,0.3,2.4959,29.8877,4.1083,0.4833,1.0,0.9985,1.0,0.8309,1.0,0.4833,1.0,0.6957,1.0,0.9997,1.0,0.9049,1.0,0.958,1.0,0.8445,1.0,0.9999,1.0,0.958,1.0,0.9997,1.0,0.9364,1.0,1.0,1.0,0.9626,1.0,1.0,1.0,0.975,1.0,0.9999,1.0,0.9697,1.0,1.0,1.0,0.9921,1.0,1.0,1.0,0.9818,1.0,0.9997,1.0,0.9972,1.0,0.9886,1.0,0.9894,1.0,0.9993,1.0,0.9988,1.0,0.9804,1.0,0.9945,1.0,0.9725,1.0,0.9995,0.0,0.299,1.0,0.9975,1.0,0.7246,1.0,0.9998,0.0,0.001,1.0,0.9988,0.0,0.0085,1.0,0.9999,0.0,0.0072,1.0,0.9994,0.0,0.0001,1.0,0.9999
NG_CF,LSTMFCN,569,0,3,43.47,0.1429,0.0,2.6613,46.3656,5.7289,0.5863,1.0,0.9997,1.0,0.9758,1.0,0.5863,0.0,0.0252,1.0,0.9999,1.0,0.9706,0.0,0.1053,0.0,0.0028,1.0,1.0,1.0,0.9908,0.0,0.0014,0.0,0.0012,1.0,1.0,1.0,0.9969,0.0,0.0001,0.0,0.0015,1.0,1.0,1.0,0.9984,0.0,0.0,0.0,0.0028,1.0,0.9988,1.0,0.9985,0.0,0.0001,0.0,0.0042,1.0,0.8975,1.0,0.9983,0.0,0.0003,0.0,0.0049,1.0,0.8442,1.0,0.9985,0.0,0.0,0.0,0.0022,0.0,0.1629,1.0,0.9986,0.0,0.0,0.0,0.0008,0.0,0.0014,1.0,0.9985,0.0,0.0,0.0,0.0003,0.0,0.0007,1.0,0.9986,0.0,0.0,0.0,0.0002
NG_CF,LSTMFCN,1176,0,4,17.084,0.5571,0.5,4.518,45.8901,7.6109,0.576,1.0,0.9994,1.0,0.9665,1.0,0.576,0.0,0.0007,1.0,0.9998,1.0,0.9895,0.0,0.3456,0.0,0.0004,1.0,1.0,1.0,0.9957,0.0,0.0366,0.0,0.0002,1.0,1.0,1.0,0.9992,0.0,0.0094,0.0,0.0001,1.0,1.0,1.0,0.9997,0.0,0.0279,0.0,0.0001,1.0,0.9995,1.0,0.9998,0.0,0.0126,0.0,0.0002,1.0,0.998,1.0,0.9999,1.0,0.9779,0.0,0.0002,1.0,0.7923,1.0,0.9998,1.0,0.8933,0.0,0.0002,1.0,0.7624,1.0,0.9998,1.0,0.99,0.0,0.0003,0.0,0.0199,1.0,0.9998,1.0,0.9993,0.0,0.0003,0.0,0.0007,1.0,0.9998,1.0,0.9999,0.0,0.0002
NG_CF,LSTMFCN,1974,0,0,9.0036,0.7,0.6,3.7492,28.7955,5.0282,0.4272,1.0,0.9974,1.0,0.9736,1.0,0.4272,1.0,0.9743,1.0,0.999,1.0,0.9743,1.0,0.9658,1.0,0.8612,1.0,1.0,1.0,0.9922,1.0,0.9266,1.0,0.9309,1.0,0.9998,1.0,0.9964,1.0,0.9995,1.0,0.9925,1.0,0.9998,1.0,0.9977,1.0,0.9967,1.0,0.9992,1.0,0.9999,1.0,0.9982,1.0,0.9914,1.0,0.9998,1.0,0.8935,1.0,0.9985,1.0,0.6976,1.0,0.9998,1.0,0.8313,1.0,0.9988,0.0,0.0659,1.0,0.9998,0.0,0.0144,1.0,0.999,0.0,0.01,1.0,0.9996,0.0,0.1801,1.0,0.9991,0.0,0.0001,1.0,0.9994,0.0,0.0052,1.0,0.9991,0.0,0.0004,1.0,0.9992
NG_CF,LSTMFCN,3071,1,2,49.2084,0.0786,0.0,3.6433,56.4581,6.5952,0.502,1.0,0.9693,0.0,0.0011,1.0,0.502,0.0,0.2535,1.0,0.915,0.0,0.0013,1.0,0.3885,0.0,0.0091,1.0,0.9878,0.0,0.0003,0.0,0.0985,0.0,0.0005,1.0,0.9712,0.0,0.0001,0.0,0.0173,0.0,0.0001,1.0,0.9896,0.0,0.0,0.0,0.0099,0.0,0.0,1.0,0.9693,0.0,0.0,0.0,0.0229,0.0,0.0,1.0,0.9864,0.0,0.0,0.0,0.0203,0.0,0.0,1.0,0.9755,0.0,0.0,0.0,0.0072,0.0,0.0,0.0,0.0864,0.0,0.0001,0.0,0.0132,0.0,0.0,0.0,0.485,0.0,0.0001,0.0,0.0006,0.0,0.0,0.0,0.087,0.0,0.0001,0.0,0.0001,0.0,0.0
NG_CF,LSTMFCN,93,0,1,9.8527,0.6857,0.6,2.8117,34.0458,7.1318,0.4143,1.0,0.9996,1.0,0.9644,1.0,0.4143,0.0,0.001,1.0,0.9998,1.0,0.9735,0.0,0.1246,0.0,0.0,1.0,1.0,1.0,0.9953,0.0,0.0032,0.0,0.0,1.0,1.0,1.0,0.9988,0.0,0.0001,0.0,0.0,1.0,1.0,1.0,0.9997,0.0,0.0002,0.0,0.0,1.0,0.9998,1.0,0.9998,0.0,0.0035,0.0,0.0,1.0,0.9886,1.0,0.9998,0.0,0.0033,0.0,0.0,1.0,0.9485,1.0,0.9998,0.0,0.251,0.0,0.0,0.0,0.0335,1.0,0.9997,0.0,0.0009,0.0,0.0,0.0,0.0118,1.0,0.9995,0.0,0.0064,0.0,0.0,0.0,0.0003,1.0,0.9994,0.0,0.0226,0.0,0.0
NG_CF,LSTMFCN,1241,0,0,37.9767,0.2143,0.2,2.4328,36.3694,4.1372,0.47,1.0,0.9999,1.0,0.9627,1.0,0.47,1.0,0.9129,1.0,1.0,1.0,0.9696,1.0,0.9636,1.0,0.9504,1.0,1.0,1.0,0.9834,1.0,0.9997,1.0,0.9684,1.0,1.0,1.0,0.9888,1.0,1.0,1.0,0.9859,1.0,1.0,1.0,0.9923,1.0,1.0,1.0,0.9953,1.0,0.9998,1.0,0.9934,1.0,0.9998,1.0,0.9979,1.0,0.9999,1.0,0.9937,1.0,0.9998,1.0,0.999,1.0,0.8378,1.0,0.994,1.0,0.9876,1.0,0.9997,1.0,0.5045,1.0,0.996,1.0,0.7742,1.0,0.9999,0.0,0.0398,1.0,0.9977,0.0,0.202,1.0,1.0,0.0,0.121,1.0,0.9984,0.0,0.0,1.0,1.0
NG_CF,LSTMFCN,300,0,3,35.8817,0.2357,0.2,2.0952,38.7135,4.7394,0.566,1.0,0.9995,1.0,0.9425,1.0,0.566,0.0,0.0001,1.0,0.9999,1.0,0.9832,0.0,0.1107,0.0,0.0,1.0,1.0,1.0,0.9927,0.0,0.0,0.0,0.0001,1.0,1.0,1.0,0.994,0.0,0.0,0.0,0.0001,1.0,1.0,1.0,0.996,0.0,0.0,0.0,0.0002,1.0,0.9995,1.0,0.9971,0.0,0.0,0.0,0.0004,1.0,0.9856,1.0,0.9978,0.0,0.0,0.0,0.0006,1.0,0.64,1.0,0.9987,0.0,0.0,0.0,0.0005,0.0,0.3118,1.0,0.9992,0.0,0.0,0.0,0.0003,0.0,0.059,1.0,0.9994,0.0,0.0,0.0,0.0002,0.0,0.0,1.0,0.9995,0.0,0.0,0.0,0.0001
NG_CF,LSTMFCN,97,0,3,44.0839,0.1429,0.0,2.645,40.8201,5.3104,0.8041,1.0,0.9997,1.0,0.9624,1.0,0.8041,0.0,0.0367,1.0,0.9999,1.0,0.9842,1.0,0.6035,0.0,0.0248,1.0,1.0,1.0,0.9871,0.0,0.0017,0.0,0.0155,1.0,1.0,1.0,0.9834,0.0,0.0001,0.0,0.0087,1.0,1.0,1.0,0.9847,0.0,0.0,0.0,0.0055,1.0,1.0,1.0,0.9871,0.0,0.0,0.0,0.0042,1.0,0.994,1.0,0.9911,0.0,0.0019,0.0,0.005,1.0,0.5765,1.0,0.9943,0.0,0.0,0.0,0.0032,1.0,0.8325,1.0,0.9963,0.0,0.0,0.0,0.0016,1.0,0.5168,1.0,0.9974,0.0,0.0,0.0,0.001,0.0,0.0044,1.0,0.998,0.0,0.0,0.0,0.0008
NG_CF,LSTMFCN,2079,0,3,43.3693,0.15,0.0,3.4568,48.0385,5.7827,0.8106,1.0,0.9999,1.0,0.9655,1.0,0.8106,0.0,0.0596,1.0,1.0,1.0,0.9695,0.0,0.21,0.0,0.0295,1.0,1.0,1.0,0.983,0.0,0.0018,0.0,0.0157,1.0,1.0,1.0,0.9895,0.0,0.0,0.0,0.0085,1.0,1.0,1.0,0.9903,0.0,0.0001,0.0,0.0053,1.0,0.9994,1.0,0.9908,0.0,0.0,0.0,0.0042,1.0,0.9986,1.0,0.9904,0.0,0.0,0.0,0.0049,1.0,0.7342,1.0,0.9914,0.0,0.0,0.0,0.0036,1.0,0.6263,1.0,0.9935,0.0,0.0,0.0,0.0021,0.0,0.279,1.0,0.9954,0.0,0.0,0.0,0.0016,0.0,0.0092,1.0,0.9967,0.0,0.0,0.0,0.0014
NG_CF,LSTMFCN,3955,1,2,46.4362,0.1071,0.1,2.8327,43.1359,5.0888,0.7085,1.0,0.9486,0.0,0.0056,1.0,0.7085,0.0,0.1237,1.0,0.9129,0.0,0.0006,0.0,0.3369,0.0,0.0028,1.0,0.9276,0.0,0.0002,0.0,0.1644,0.0,0.0001,1.0,0.941,0.0,0.0,0.0,0.0386,0.0,0.0001,1.0,0.5805,0.0,0.0,0.0,0.1206,0.0,0.0,1.0,0.7731,0.0,0.0,0.0,0.0093,0.0,0.0,1.0,0.9925,0.0,0.0,0.0,0.0006,0.0,0.0,1.0,0.9974,0.0,0.0,0.0,0.0102,0.0,0.0,1.0,0.6453,0.0,0.0001,0.0,0.0302,0.0,0.0,1.0,0.7391,0.0,0.0001,0.0,0.0004,0.0,0.0,0.0,0.32,0.0,0.0001,0.0,0.0017,0.0,0.0
NG_CF,LSTMFCN,917,0,0,9.6081,0.6857,0.6,4.0541,31.8913,5.724,0.4637,1.0,0.9979,1.0,0.9531,1.0,0.4637,1.0,0.9737,1.0,0.999,1.0,0.9374,1.0,0.8248,1.0,0.7836,1.0,0.9999,1.0,0.9885,1.0,0.9913,1.0,0.9686,1.0,1.0,1.0,0.9979,1.0,0.9968,1.0,0.9989,1.0,0.9998,1.0,0.9992,1.0,0.9998,1.0,0.9998,1.0,0.9995,1.0,0.9993,1.0,0.9967,1.0,0.9999,1.0,0.942,1.0,0.9993,0.0,0.0232,1.0,0.9998,0.0,0.1302,1.0,0.9992,0.0,0.3484,1.0,0.9995,1.0,0.6675,1.0,0.999,0.0,0.016,1.0,0.9991,0.0,0.0256,1.0,0.9991,0.0,0.0001,1.0,0.999,0.0,0.0932,1.0,0.9992,0.0,0.0,1.0,0.999
NG_CF,LSTMFCN,2445,0,3,41.4946,0.1786,0.1,2.0051,39.7343,4.6634,0.5489,1.0,0.9997,1.0,0.8024,1.0,0.5489,0.0,0.0113,1.0,1.0,1.0,0.9021,0.0,0.3756,0.0,0.0025,1.0,1.0,1.0,0.9645,0.0,0.0007,0.0,0.0019,1.0,1.0,1.0,0.9136,0.0,0.0,0.0,0.0017,1.0,1.0,1.0,0.8974,0.0,0.0,0.0,0.0025,1.0,0.9999,1.0,0.9229,0.0,0.0,0.0,0.0034,1.0,0.9933,1.0,0.9538,0.0,0.0,0.0,0.0029,0.0,0.3032,1.0,0.9794,0.0,0.0003,0.0,0.0011,1.0,0.9688,1.0,0.991,0.0,0.0004,0.0,0.0005,0.0,0.0017,1.0,0.9944,0.0,0.0,0.0,0.0003,0.0,0.0029,1.0,0.9958,0.0,0.0,0.0,0.0002
NG_CF,LSTMFCN,3224,1,2,48.6476,0.0929,0.1,1.7296,31.5754,3.9208,0.9892,1.0,0.8196,0.0,0.0002,1.0,0.9892,0.0,0.4679,1.0,0.7905,0.0,0.0003,0.0,0.3452,0.0,0.015,1.0,0.9373,0.0,0.0005,0.0,0.0647,0.0,0.0003,1.0,0.9332,0.0,0.0002,0.0,0.0022,0.0,0.0,1.0,0.888,0.0,0.0002,0.0,0.012,0.0,0.0,1.0,0.8909,0.0,0.0002,0.0,0.012,0.0,0.0,1.0,0.97,0.0,0.0003,0.0,0.0009,0.0,0.0,1.0,0.9864,0.0,0.0003,0.0,0.0289,0.0,0.0,1.0,0.9486,0.0,0.0003,0.0,0.0188,0.0,0.0,0.0,0.2241,0.0,0.0003,0.0,0.0007,0.0,0.0,1.0,0.8613,0.0,0.0002,0.0,0.0246,0.0,0.0
NG_CF,LSTMFCN,249,0,3,43.5953,0.1429,0.0,3.2231,46.8333,5.6792,0.7567,1.0,0.9999,1.0,0.9713,1.0,0.7567,0.0,0.0421,1.0,1.0,1.0,0.9711,0.0,0.159,0.0,0.0056,1.0,1.0,1.0,0.978,0.0,0.0019,0.0,0.0028,1.0,1.0,1.0,0.9893,0.0,0.0004,0.0,0.0035,1.0,1.0,1.0,0.9931,0.0,0.0,0.0,0.0054,1.0,0.9999,1.0,0.9951,0.0,0.0,0.0,0.0073,1.0,0.9966,1.0,0.9958,0.0,0.0005,0.0,0.0071,1.0,0.9737,1.0,0.9961,0.0,0.0003,0.0,0.0034,0.0,0.2687,1.0,0.9969,0.0,0.0004,0.0,0.0016,0.0,0.002,1.0,0.9976,0.0,0.0,0.0,0.0009,0.0,0.0002,1.0,0.9983,0.0,0.0,0.0,0.0006
NG_CF,LSTMFCN,2206,0,2,12.5851,0.6571,0.6,5.4811,40.4831,7.3703,0.381,1.0,0.9997,1.0,0.9601,1.0,0.381,0.0,0.0247,1.0,0.9999,1.0,0.9828,0.0,0.0949,0.0,0.0014,1.0,1.0,1.0,0.9973,0.0,0.0187,0.0,0.0002,1.0,1.0,1.0,0.999,0.0,0.0014,0.0,0.0,1.0,1.0,1.0,0.9992,0.0,0.0002,0.0,0.0,1.0,0.9982,1.0,0.9991,0.0,0.0002,0.0,0.0,1.0,0.985,1.0,0.9991,0.0,0.0008,0.0,0.0,0.0,0.2581,1.0,0.9992,0.0,0.0039,0.0,0.0,0.0,0.0125,1.0,0.9993,0.0,0.0035,0.0,0.0,0.0,0.3753,1.0,0.9992,0.0,0.0013,0.0,0.0,0.0,0.0,1.0,0.9989,0.0,0.0001,0.0,0.0
NG_CF,LSTMFCN,1065,0,1,12.0838,0.8143,0.8,5.6175,31.6703,8.8426,0.625,1.0,0.9995,1.0,0.9915,1.0,0.625,0.0,0.2946,1.0,0.9999,1.0,0.9762,0.0,0.2492,0.0,0.0312,1.0,1.0,1.0,0.9672,0.0,0.0269,0.0,0.0027,1.0,1.0,1.0,0.9811,0.0,0.0679,0.0,0.0005,1.0,0.9999,1.0,0.992,0.0,0.0341,0.0,0.0003,1.0,0.9999,1.0,0.9967,0.0,0.0839,0.0,0.0001,1.0,0.9924,1.0,0.9984,0.0,0.1287,0.0,0.0001,1.0,0.5295,1.0,0.9992,1.0,0.6926,0.0,0.0,0.0,0.0078,1.0,0.9995,0.0,0.0885,0.0,0.0,0.0,0.1034,1.0,0.9996,0.0,0.0268,0.0,0.0,0.0,0.0003,1.0,0.9997,0.0,0.0198,0.0,0.0
NG_CF,LSTMFCN,29,0,3,43.7766,0.1429,0.0,3.2936,51.5188,5.8777,0.7612,1.0,0.9999,1.0,0.9667,1.0,0.7612,0.0,0.0485,1.0,1.0,1.0,0.9685,0.0,0.3372,0.0,0.0089,1.0,1.0,1.0,0.9808,0.0,0.0008,0.0,0.0053,1.0,1.0,1.0,0.9916,0.0,0.0,0.0,0.0057,1.0,1.0,1.0,0.9949,0.0,0.0,0.0,0.008,1.0,0.9983,1.0,0.9961,0.0,0.0,0.0,0.0106,1.0,0.9981,1.0,0.996,0.0,0.0002,0.0,0.0105,1.0,0.9909,1.0,0.9962,0.0,0.0003,0.0,0.0056,0.0,0.3932,1.0,0.9974,0.0,0.0,0.0,0.003,1.0,0.5384,1.0,0.9984,0.0,0.0,0.0,0.0019,0.0,0.0017,1.0,0.9991,0.0,0.0,0.0,0.0014
NG_CF,LSTMFCN,4179,1,2,50.9345,0.0643,0.0,3.7901,54.0407,6.0562,0.9977,1.0,0.9949,0.0,0.0159,1.0,0.9977,1.0,0.8083,1.0,0.9323,0.0,0.0343,1.0,0.7715,0.0,0.0418,1.0,0.4145,0.0,0.0833,0.0,0.037,0.0,0.0004,0.0,0.0667,0.0,0.0633,0.0,0.0172,0.0,0.0001,0.0,0.0021,0.0,0.029,0.0,0.0049,0.0,0.0,0.0,0.1068,0.0,0.0093,0.0,0.0107,0.0,0.0,1.0,0.8979,0.0,0.0029,0.0,0.0171,0.0,0.0,0.0,0.0459,0.0,0.0017,0.0,0.0041,0.0,0.0,0.0,0.0567,0.0,0.0017,0.0,0.1089,0.0,0.0,1.0,0.6444,0.0,0.0019,0.0,0.0307,0.0,0.0,0.0,0.0018,0.0,0.002,0.0,0.002,0.0,0.0
NG_CF,LSTMFCN,3355,1,0,0.2604,0.9929,0.9,1.3739,1.912,1.912,0.8145,1.0,0.6093,0.0,0.0003,1.0,0.8145,1.0,0.9903,0.0,0.204,0.0,0.0,1.0,0.9501,1.0,0.9764,0.0,0.0086,0.0,0.0,1.0,0.9605,1.0,0.976,0.0,0.0011,0.0,0.0,1.0,0.9961,1.0,0.9866,0.0,0.0113,0.0,0.0,1.0,0.9965,1.0,0.996,0.0,0.1592,0.0,0.0,1.0,0.9716,1.0,0.999,0.0,0.3548,0.0,0.0,0.0,0.1804,1.0,0.9996,0.0,0.1384,0.0,0.0,0.0,0.0304,1.0,0.9998,0.0,0.0046,0.0,0.0,0.0,0.0009,1.0,0.9999,0.0,0.0001,0.0,0.0,0.0,0.0008,1.0,0.9999,0.0,0.0006,0.0,0.0,0.0,0.0,1.0,0.9999
NG_CF,LSTMFCN,3231,1,2,46.6031,0.1071,0.1,2.4305,40.1073,5.214,0.5763,1.0,0.9644,0.0,0.0302,1.0,0.5763,0.0,0.1695,1.0,0.8971,0.0,0.0384,0.0,0.3809,0.0,0.0043,1.0,0.9782,0.0,0.0096,0.0,0.3586,0.0,0.0002,1.0,0.9537,0.0,0.0025,0.0,0.0103,0.0,0.0001,1.0,0.8121,0.0,0.0017,0.0,0.0137,0.0,0.0,1.0,0.9482,0.0,0.0018,0.0,0.0219,0.0,0.0,1.0,0.9791,0.0,0.0018,0.0,0.0129,0.0,0.0,1.0,0.8934,0.0,0.0025,0.0,0.0169,0.0,0.0,1.0,0.889,0.0,0.0036,0.0,0.0051,0.0,0.0,0.0,0.0695,0.0,0.0052,0.0,0.0037,0.0,0.0,0.0,0.0242,0.0,0.0066,0.0,0.0086,0.0,0.0
NG_CF,LSTMFCN,401,0,0,18.2351,0.5,0.4,3.0507,29.4532,4.6594,0.4529,1.0,0.9708,1.0,0.9449,1.0,0.4529,1.0,0.8919,1.0,0.9916,1.0,0.8921,1.0,0.9836,1.0,0.9065,1.0,0.9999,1.0,0.9474,1.0,0.9993,1.0,0.9599,1.0,0.9997,1.0,0.9931,1.0,0.9999,1.0,0.9876,1.0,0.9995,1.0,0.9984,1.0,0.9999,1.0,0.9959,1.0,0.8986,1.0,0.999,1.0,0.9986,1.0,0.9984,1.0,0.9927,1.0,0.999,1.0,0.9968,1.0,0.9992,1.0,0.7152,1.0,0.9989,0.0,0.1284,1.0,0.9994,0.0,0.0027,1.0,0.999,0.0,0.0078,1.0,0.9996,0.0,0.0021,1.0,0.9992,0.0,0.0005,1.0,0.9997,0.0,0.0055,1.0,0.9993,0.0,0.0014,1.0,0.9997
NG_CF,LSTMFCN,1283,0,3,45.6885,0.1143,0.0,3.1341,90.278,10.4656,0.6755,1.0,0.9998,1.0,0.9954,1.0,0.6755,0.0,0.0056,1.0,0.9999,1.0,0.9942,0.0,0.1201,0.0,0.0022,1.0,1.0,1.0,0.9983,0.0,0.0003,0.0,0.0008,1.0,1.0,1.0,0.9995,0.0,0.0,0.0,0.0003,1.0,0.9999,1.0,0.9998,0.0,0.0002,0.0,0.0001,1.0,0.9997,1.0,0.9998,0.0,0.0003,0.0,0.0001,1.0,0.9941,1.0,0.9998,0.0,0.0007,0.0,0.0001,1.0,0.918,1.0,0.9998,0.0,0.0006,0.0,0.0001,0.0,0.2428,1.0,0.9998,0.0,0.0001,0.0,0.0001,0.0,0.0486,1.0,0.9998,0.0,0.0001,0.0,0.0,0.0,0.0,1.0,0.9998,0.0,0.0,0.0,0.0
NG_CF,LSTMFCN,208,0,3,33.6998,0.2714,0.2,2.3215,55.5511,6.5993,0.5463,1.0,0.998,1.0,0.9312,1.0,0.5463,0.0,0.0011,1.0,0.9996,1.0,0.9806,0.0,0.0238,0.0,0.0007,1.0,0.9999,1.0,0.9873,0.0,0.0001,0.0,0.0003,1.0,0.9999,1.0,0.9851,0.0,0.0,0.0,0.0001,1.0,1.0,1.0,0.9906,0.0,0.0,0.0,0.0001,1.0,0.999,1.0,0.9959,0.0,0.0,0.0,0.0001,1.0,0.9948,1.0,0.9978,0.0,0.0,0.0,0.0,0.0,0.3297,1.0,0.9987,0.0,0.0001,0.0,0.0,1.0,0.8786,1.0,0.9992,0.0,0.0001,0.0,0.0,0.0,0.391,1.0,0.9994,0.0,0.0,0.0,0.0,0.0,0.0058,1.0,0.9994,0.0,0.0,0.0,0.0
NG_CF,LSTMFCN,4181,1,2,50.2984,0.0643,0.0,3.6037,51.0569,5.9261,0.9972,1.0,0.9963,0.0,0.0144,1.0,0.9972,1.0,0.8099,1.0,0.9478,0.0,0.0261,1.0,0.7475,0.0,0.0407,1.0,0.5319,0.0,0.0489,0.0,0.1307,0.0,0.0004,0.0,0.1843,0.0,0.0359,0.0,0.0349,0.0,0.0001,0.0,0.4516,0.0,0.0126,0.0,0.0061,0.0,0.0,0.0,0.3976,0.0,0.0028,0.0,0.0065,0.0,0.0,1.0,0.9716,0.0,0.0012,0.0,0.054,0.0,0.0,1.0,0.9207,0.0,0.0008,0.0,0.027,0.0,0.0,0.0,0.2378,0.0,0.0009,0.0,0.0127,0.0,0.0,0.0,0.2925,0.0,0.0012,0.0,0.0053,0.0,0.0,0.0,0.026,0.0,0.0015,0.0,0.0071,0.0,0.0
NG_CF,LSTMFCN,310,0,0,46.6319,0.0929,0.0,2.6351,63.5499,7.3762,0.4763,1.0,0.9997,1.0,0.9448,1.0,0.4763,1.0,0.8507,1.0,0.9999,1.0,0.973,1.0,0.9121,0.0,0.3273,1.0,1.0,1.0,0.9929,1.0,0.9967,0.0,0.182,1.0,1.0,1.0,0.9966,1.0,0.9994,1.0,0.4989,1.0,0.9998,1.0,0.9959,1.0,0.9996,1.0,0.8659,1.0,0.9985,1.0,0.9955,1.0,0.995,1.0,0.9573,1.0,0.9752,1.0,0.9972,1.0,0.9898,1.0,0.9842,1.0,0.6154,1.0,0.9988,1.0,0.9589,1.0,0.9954,0.0,0.2005,1.0,0.9993,0.0,0.0176,1.0,0.9984,0.0,0.0302,1.0,0.9995,0.0,0.0001,1.0,0.9992,0.0,0.0,1.0,0.9995,0.0,0.0001,1.0,0.9995
NG_CF,LSTMFCN,2704,1,2,48.0406,0.0786,0.0,3.6537,57.2315,7.3323,0.5418,1.0,0.9708,0.0,0.0039,1.0,0.5418,0.0,0.2611,1.0,0.9684,0.0,0.0112,1.0,0.3655,0.0,0.0091,1.0,0.9957,0.0,0.0067,0.0,0.0569,0.0,0.0005,1.0,0.9924,0.0,0.0022,0.0,0.0147,0.0,0.0001,1.0,0.9716,0.0,0.002,0.0,0.0107,0.0,0.0,1.0,0.9842,0.0,0.0026,0.0,0.0055,0.0,0.0,1.0,0.956,0.0,0.005,0.0,0.0036,0.0,0.0,0.0,0.1244,0.0,0.0078,0.0,0.0036,0.0,0.0,0.0,0.4269,0.0,0.009,0.0,0.0038,0.0,0.0,0.0,0.1299,0.0,0.0086,0.0,0.0005,0.0,0.0,0.0,0.0361,0.0,0.0082,0.0,0.0018,0.0,0.0
NG_CF,LSTMFCN,2631,1,2,48.3115,0.0857,0.0,2.3084,30.1611,4.5925,0.8791,1.0,0.8419,0.0,0.0008,1.0,0.8791,0.0,0.4745,1.0,0.8764,0.0,0.0013,0.0,0.2482,0.0,0.019,1.0,0.9541,0.0,0.004,0.0,0.132,0.0,0.0004,1.0,0.9624,0.0,0.0046,0.0,0.0159,0.0,0.0,1.0,0.9638,0.0,0.0046,0.0,0.0025,0.0,0.0,1.0,0.9713,0.0,0.0038,0.0,0.0567,0.0,0.0,1.0,0.9403,0.0,0.004,0.0,0.004,0.0,0.0,1.0,0.8973,0.0,0.0036,0.0,0.0004,0.0,0.0,1.0,0.9547,0.0,0.0026,0.0,0.0002,0.0,0.0,1.0,0.8797,0.0,0.0023,0.0,0.0033,0.0,0.0,1.0,0.6101,0.0,0.0021,0.0,0.0009,0.0,0.0
NG_CF,LSTMFCN,916,0,1,46.7129,0.0929,0.0,3.2562,67.5798,7.4632,0.5378,1.0,0.9988,1.0,0.9762,1.0,0.5378,0.0,0.0044,1.0,0.9993,1.0,0.9724,0.0,0.2536,0.0,0.0023,1.0,1.0,1.0,0.9933,0.0,0.0001,0.0,0.0004,1.0,1.0,1.0,0.9973,0.0,0.0,0.0,0.0001,1.0,0.9997,1.0,0.9974,0.0,0.0002,0.0,0.0,1.0,0.9972,1.0,0.9967,0.0,0.0002,0.0,0.0,1.0,0.9889,1.0,0.996,0.0,0.0676,0.0,0.0,1.0,0.8438,1.0,0.9946,0.0,0.0119,0.0,0.0,1.0,0.9168,1.0,0.9937,0.0,0.0224,0.0,0.0,0.0,0.0009,1.0,0.9937,0.0,0.0011,0.0,0.0,0.0,0.0,1.0,0.9943,0.0,0.0007,0.0,0.0
NG_CF,LSTMFCN,220,0,0,40.6906,0.1714,0.1,2.284,45.4117,5.5754,0.4308,1.0,0.9991,1.0,0.9411,1.0,0.4308,1.0,0.8648,1.0,0.9995,1.0,0.9752,1.0,0.966,1.0,0.4716,1.0,0.9999,1.0,0.9625,1.0,0.9979,0.0,0.1707,1.0,1.0,1.0,0.9226,1.0,0.9999,0.0,0.2265,1.0,0.9999,1.0,0.951,1.0,0.9994,0.0,0.3884,1.0,0.9992,1.0,0.9828,1.0,0.9971,1.0,0.7073,1.0,0.9395,1.0,0.9931,1.0,0.8765,1.0,0.9128,1.0,0.7048,1.0,0.997,1.0,0.8496,1.0,0.9751,0.0,0.1194,1.0,0.9987,0.0,0.0508,1.0,0.9898,0.0,0.0312,1.0,0.9992,0.0,0.0008,1.0,0.9953,0.0,0.0001,1.0,0.9994,0.0,0.0641,1.0,0.997
NG_CF,LSTMFCN,1860,0,2,48.507,0.1,0.0,2.9903,44.4474,5.9972,0.5057,1.0,0.9999,1.0,0.9962,1.0,0.5057,0.0,0.0024,1.0,1.0,1.0,0.9946,0.0,0.0305,0.0,0.0071,1.0,1.0,1.0,0.9966,0.0,0.0019,0.0,0.0071,1.0,1.0,1.0,0.9985,0.0,0.0,0.0,0.006,1.0,1.0,1.0,0.9988,0.0,0.0,0.0,0.0035,1.0,0.9998,1.0,0.999,0.0,0.0,0.0,0.0022,1.0,0.9954,1.0,0.9991,0.0,0.0002,0.0,0.0013,1.0,0.988,1.0,0.9991,0.0,0.0,0.0,0.0007,1.0,0.8758,1.0,0.9992,0.0,0.0003,0.0,0.0004,0.0,0.0514,1.0,0.9993,0.0,0.0001,0.0,0.0002,0.0,0.2635,1.0,0.9994,0.0,0.0001,0.0,0.0002
NG_CF,LSTMFCN,4266,1,2,4.4339,0.8786,0.8,2.1305,18.7904,5.1339,0.4716,1.0,0.9958,0.0,0.0232,1.0,0.4716,1.0,0.5241,1.0,0.9459,0.0,0.0228,1.0,0.5461,0.0,0.1728,1.0,0.4864,0.0,0.0472,0.0,0.0362,0.0,0.0457,0.0,0.0071,0.0,0.0282,0.0,0.0901,0.0,0.009,0.0,0.1323,0.0,0.0076,0.0,0.0021,0.0,0.0018,0.0,0.0782,0.0,0.0014,0.0,0.0187,0.0,0.0004,0.0,0.0697,0.0,0.0006,0.0,0.0026,0.0,0.0001,1.0,0.9208,0.0,0.0005,0.0,0.0036,0.0,0.0,1.0,0.9885,0.0,0.0003,0.0,0.0087,0.0,0.0,0.0,0.0433,0.0,0.0002,0.0,0.0003,0.0,0.0,0.0,0.0075,0.0,0.0002,0.0,0.0023,0.0,0.0
NG_CF,LSTMFCN,4326,1,2,49.4546,0.0429,0.0,3.0241,48.0095,6.1046,0.8359,1.0,0.9944,0.0,0.0018,1.0,0.8359,0.0,0.4745,1.0,0.9737,0.0,0.0002,0.0,0.0511,0.0,0.0162,1.0,0.9525,0.0,0.0,0.0,0.0079,0.0,0.0003,1.0,0.9773,0.0,0.0,0.0,0.0287,0.0,0.0,1.0,0.9643,0.0,0.0,0.0,0.0278,0.0,0.0,1.0,0.9812,0.0,0.0,0.0,0.012,0.0,0.0,1.0,0.9789,0.0,0.0,0.0,0.0222,0.0,0.0,1.0,0.804,0.0,0.0,0.0,0.0004,0.0,0.0,1.0,0.875,0.0,0.0,0.0,0.0011,0.0,0.0,0.0,0.3674,0.0,0.0,0.0,0.0051,0.0,0.0,0.0,0.0475,0.0,0.0,0.0,0.0052,0.0,0.0
NG_CF,LSTMFCN,4237,1,1,44.8436,0.1143,0.1,2.509,44.9667,4.919,0.4757,1.0,0.9096,0.0,0.0005,1.0,0.4757,0.0,0.0,1.0,0.8836,0.0,0.0006,0.0,0.2144,0.0,0.0,1.0,0.9489,0.0,0.001,1.0,0.6378,0.0,0.0,1.0,0.946,0.0,0.0005,0.0,0.3713,0.0,0.0,1.0,0.9076,0.0,0.0004,1.0,0.7511,0.0,0.0,0.0,0.3669,0.0,0.0005,1.0,0.5665,0.0,0.0,1.0,0.9466,0.0,0.0007,1.0,0.8921,0.0,0.0,1.0,0.9924,0.0,0.0011,0.0,0.393,0.0,0.0,0.0,0.0362,0.0,0.0021,1.0,0.7616,0.0,0.0,0.0,0.0169,0.0,0.0032,1.0,0.7833,0.0,0.0,0.0,0.1027,0.0,0.0038,1.0,0.599,0.0,0.0
NG_CF,LSTMFCN,2096,0,1,30.6574,0.6143,0.6,5.2936,42.4257,7.3301,0.9277,1.0,0.9963,1.0,0.9115,1.0,0.9277,0.0,0.3704,1.0,0.9981,1.0,0.9502,1.0,0.84,0.0,0.0087,1.0,0.9999,1.0,0.9886,1.0,0.6914,0.0,0.0066,1.0,1.0,1.0,0.9939,0.0,0.359,0.0,0.0041,1.0,1.0,1.0,0.9958,1.0,0.6578,0.0,0.0022,1.0,0.8677,1.0,0.9973,1.0,0.9497,0.0,0.0023,1.0,0.8702,1.0,0.9982,1.0,0.8005,0.0,0.0021,0.0,0.3275,1.0,0.9987,1.0,0.8532,0.0,0.0019,0.0,0.0096,1.0,0.9989,1.0,0.6868,0.0,0.0019,0.0,0.0249,1.0,0.999,0.0,0.2374,0.0,0.002,0.0,0.0,1.0,0.9992,0.0,0.0285,0.0,0.0022
NG_CF,LSTMFCN,1372,0,1,30.4682,0.6143,0.6,5.5178,37.9657,6.8177,0.9231,1.0,0.996,1.0,0.9374,1.0,0.9231,1.0,0.485,1.0,0.9992,1.0,0.9424,1.0,0.7122,0.0,0.0142,1.0,0.9999,1.0,0.961,1.0,0.7308,0.0,0.0022,1.0,1.0,1.0,0.9577,0.0,0.1227,0.0,0.0003,1.0,0.9998,1.0,0.9804,0.0,0.2167,0.0,0.0001,1.0,0.9993,1.0,0.9937,1.0,0.5846,0.0,0.0001,1.0,0.9217,1.0,0.9979,0.0,0.0482,0.0,0.0001,1.0,0.9371,1.0,0.9991,1.0,0.8733,0.0,0.0001,0.0,0.1199,1.0,0.9995,1.0,0.5258,0.0,0.0001,0.0,0.0003,1.0,0.9996,1.0,0.7009,0.0,0.0001,0.0,0.0165,1.0,0.9996,0.0,0.0005,0.0,0.0002
NG_CF,LSTMFCN,3973,1,2,50.0288,0.0786,0.0,3.1719,53.2101,5.77,0.4801,1.0,0.9648,0.0,0.0011,1.0,0.4801,0.0,0.2614,1.0,0.9039,0.0,0.0018,0.0,0.1906,0.0,0.0093,1.0,0.9427,0.0,0.0014,0.0,0.0535,0.0,0.0005,1.0,0.9385,0.0,0.0005,0.0,0.0027,0.0,0.0002,1.0,0.5788,0.0,0.0003,0.0,0.0274,0.0,0.0,1.0,0.9933,0.0,0.0002,0.0,0.0116,0.0,0.0,1.0,0.9138,0.0,0.0002,0.0,0.0008,0.0,0.0,1.0,0.7049,0.0,0.0003,0.0,0.0269,0.0,0.0,1.0,0.8805,0.0,0.0005,0.0,0.0012,0.0,0.0,1.0,0.6965,0.0,0.0006,0.0,0.0067,0.0,0.0,0.0,0.1138,0.0,0.0008,0.0,0.0009,0.0,0.0
NG_CF,LSTMFCN,4011,1,2,38.1819,0.2,0.2,2.9858,29.4073,4.2619,0.9001,1.0,0.926,0.0,0.0027,1.0,0.9001,0.0,0.2908,1.0,0.7077,0.0,0.0,0.0,0.3891,0.0,0.0111,1.0,0.6148,0.0,0.0,0.0,0.0136,0.0,0.0002,0.0,0.2351,0.0,0.0,0.0,0.0015,0.0,0.0,0.0,0.0981,0.0,0.0,0.0,0.0,0.0,0.0,0.0,0.0004,0.0,0.0,0.0,0.0,0.0,0.0,0.0,0.2871,0.0,0.0,0.0,0.002,0.0,0.0,1.0,0.9304,0.0,0.0,0.0,0.001,0.0,0.0,0.0,0.0069,0.0,0.0,0.0,0.0321,0.0,0.0,0.0,0.0061,0.0,0.0,0.0,0.0007,0.0,0.0,0.0,0.0731,0.0,0.0,0.0,0.0001,0.0,0.0
NG_CF,LSTMFCN,2119,0,0,46.9435,0.1071,0.0,3.1368,62.2774,7.043,0.4489,1.0,0.9999,1.0,0.9728,1.0,0.4489,1.0,0.852,1.0,1.0,1.0,0.9866,1.0,0.9204,0.0,0.377,1.0,1.0,1.0,0.9923,1.0,0.9964,0.0,0.1713,1.0,1.0,1.0,0.9895,1.0,0.9998,0.0,0.2891,1.0,1.0,1.0,0.9837,1.0,0.9999,1.0,0.674,1.0,0.9995,1.0,0.9848,1.0,0.9983,1.0,0.8921,1.0,0.9969,1.0,0.9924,1.0,0.9952,1.0,0.9635,1.0,0.5544,1.0,0.996,1.0,0.9555,1.0,0.9895,0.0,0.0169,1.0,0.998,0.0,0.1561,1.0,0.9962,0.0,0.0018,1.0,0.9991,0.0,0.0001,1.0,0.9982,0.0,0.0069,1.0,0.9994,0.0,0.0,1.0,0.9988
NG_CF,LSTMFCN,2357,0,0,36.0647,0.2357,0.2,3.2572,34.4394,4.8151,0.4816,1.0,0.9972,1.0,0.889,1.0,0.4816,1.0,0.7636,1.0,0.9994,1.0,0.9664,1.0,0.9935,1.0,0.9421,1.0,1.0,1.0,0.9859,1.0,0.9998,1.0,0.9805,1.0,0.9999,1.0,0.9898,1.0,1.0,1.0,0.9898,1.0,1.0,1.0,0.9939,1.0,1.0,1.0,0.9944,1.0,0.9993,1.0,0.9968,1.0,0.9999,1.0,0.997,1.0,0.9955,1.0,0.998,1.0,0.9977,1.0,0.9985,1.0,0.9656,1.0,0.9989,1.0,0.9791,1.0,0.9993,1.0,0.8395,1.0,0.9993,1.0,0.6386,1.0,0.9996,0.0,0.0038,1.0,0.9995,0.0,0.0005,1.0,0.9997,0.0,0.0001,1.0,0.9996,0.0,0.1333,1.0,0.9998
NG_CF,LSTMFCN,3911,1,1,47.5835,0.1143,0.2,3.0339,39.7681,4.9755,0.4601,1.0,0.9446,0.0,0.0261,1.0,0.4601,0.0,0.0001,1.0,0.9053,0.0,0.0036,0.0,0.3029,0.0,0.0,1.0,0.8316,0.0,0.0005,1.0,0.7045,0.0,0.0,1.0,0.8257,0.0,0.0001,1.0,0.6851,0.0,0.0,1.0,0.9408,0.0,0.0001,1.0,0.639,0.0,0.0,1.0,0.8088,0.0,0.0001,1.0,0.922,0.0,0.0001,1.0,0.9534,0.0,0.0001,1.0,0.6454,0.0,0.0001,1.0,0.9957,0.0,0.0002,1.0,0.6263,0.0,0.0001,1.0,0.5919,0.0,0.0003,1.0,0.8603,0.0,0.0002,0.0,0.4212,0.0,0.0004,1.0,0.6186,0.0,0.0002,0.0,0.0229,0.0,0.0005,0.0,0.2151,0.0,0.0002
NG_CF,LSTMFCN,4016,1,2,40.2601,0.1857,0.1,4.3831,53.4625,6.8604,0.5427,1.0,0.9965,0.0,0.007,1.0,0.5427,0.0,0.1811,1.0,0.9651,0.0,0.0159,0.0,0.2955,0.0,0.0185,1.0,0.6029,0.0,0.0532,1.0,0.3739,0.0,0.0014,0.0,0.1306,0.0,0.0448,0.0,0.02,0.0,0.0007,0.0,0.0102,0.0,0.0241,0.0,0.0141,0.0,0.0002,1.0,0.6337,0.0,0.009,0.0,0.0165,0.0,0.0,1.0,0.6856,0.0,0.0038,0.0,0.0353,0.0,0.0,1.0,0.9178,0.0,0.0024,0.0,0.034,0.0,0.0,1.0,0.6279,0.0,0.002,0.0,0.0357,0.0,0.0,0.0,0.0599,0.0,0.0017,0.0,0.0011,0.0,0.0,0.0,0.0128,0.0,0.0015,0.0,0.0008,0.0,0.0
NG_CF,LSTMFCN,1132,0,1,136.7022,0.6643,0.6,4.7626,40.2154,6.736,0.3639,1.0,0.9988,1.0,0.9544,1.0,0.3639,0.0,0.0005,1.0,0.9995,1.0,0.9673,0.0,0.0335,0.0,0.0,1.0,1.0,1.0,0.9956,0.0,0.3043,0.0,0.0,1.0,1.0,1.0,0.9988,0.0,0.006,0.0,0.0,1.0,0.9997,1.0,0.9994,0.0,0.0713,0.0,0.0,1.0,0.9977,1.0,0.9996,0.0,0.0887,0.0,0.0,1.0,0.9491,1.0,0.9997,0.0,0.2298,0.0,0.0,1.0,0.6045,1.0,0.9995,1.0,0.428,0.0,0.0,0.0,0.0323,1.0,0.9992,0.0,0.1913,0.0,0.0001,0.0,0.0016,1.0,0.999,0.0,0.0011,0.0,0.0001,0.0,0.0,1.0,0.9988,0.0,0.0005,0.0,0.0001
NG_CF,LSTMFCN,4471,3,1,0.291,0.9929,0.9,0.4743,0.6189,0.6189,0.5492,1.0,0.5849,0.0,0.2626,1.0,0.5492,1.0,0.6644,1.0,0.7275,0.0,0.1686,0.0,0.228,0.0,0.4115,1.0,0.4422,0.0,0.0615,0.0,0.093,0.0,0.0548,0.0,0.0337,0.0,0.0255,0.0,0.0003,0.0,0.0012,0.0,0.0,0.0,0.0139,0.0,0.001,0.0,0.0,0.0,0.0002,0.0,0.0055,0.0,0.0023,0.0,0.0,0.0,0.0,0.0,0.0025,0.0,0.0009,0.0,0.0,0.0,0.0,0.0,0.0024,0.0,0.0271,0.0,0.0,0.0,0.0007,0.0,0.0022,0.0,0.1147,0.0,0.0,0.0,0.0,0.0,0.002,0.0,0.0125,0.0,0.0,0.0,0.0,0.0,0.0014,0.0,0.0001,0.0,0.0
NG_CF,LSTMFCN,1800,0,3,45.9185,0.1,0.0,2.7695,57.5755,6.6627,0.5225,1.0,0.9999,1.0,0.9658,1.0,0.5225,0.0,0.0527,1.0,1.0,1.0,0.9804,0.0,0.1486,0.0,0.0085,1.0,1.0,1.0,0.9954,0.0,0.0164,0.0,0.005,1.0,1.0,1.0,0.9982,0.0,0.0002,0.0,0.0042,1.0,1.0,1.0,0.9983,0.0,0.0001,0.0,0.0053,1.0,0.9985,1.0,0.998,0.0,0.0,0.0,0.0067,1.0,0.9988,1.0,0.9981,0.0,0.0003,0.0,0.0061,1.0,0.9631,1.0,0.9987,0.0,0.0003,0.0,0.0026,1.0,0.9039,1.0,0.999,0.0,0.0,0.0,0.001,0.0,0.0582,1.0,0.9992,0.0,0.0001,0.0,0.0005,0.0,0.0003,1.0,0.9994,0.0,0.0,0.0,0.0003
NG_CF,LSTMFCN,3222,1,1,7.2202,0.8,0.7,0.8962,13.421,2.6516,0.4815,1.0,0.9534,0.0,0.0082,1.0,0.4815,0.0,0.0013,1.0,0.7641,0.0,0.005,0.0,0.3,0.0,0.0002,0.0,0.3021,0.0,0.0013,0.0,0.0133,0.0,0.0009,0.0,0.0257,0.0,0.0005,0.0,0.0108,0.0,0.0044,0.0,0.0051,0.0,0.0002,0.0,0.0097,0.0,0.0122,0.0,0.0827,0.0,0.0001,0.0,0.0082,0.0,0.0089,0.0,0.0465,0.0,0.0,0.0,0.0072,0.0,0.0031,0.0,0.0016,0.0,0.0,0.0,0.007,0.0,0.0012,0.0,0.0003,0.0,0.0,0.0,0.0003,0.0,0.0004,0.0,0.0009,0.0,0.0,0.0,0.0001,0.0,0.0002,0.0,0.0005,0.0,0.0,0.0,0.0013,0.0,0.0001
NG_CF,LSTMFCN,1078,0,3,31.2853,0.3143,0.2,1.6859,47.8336,5.3709,0.4652,1.0,0.9991,1.0,0.9063,1.0,0.4652,0.0,0.0,1.0,0.9997,1.0,0.9251,0.0,0.0154,0.0,0.0,1.0,1.0,1.0,0.9693,0.0,0.0,0.0,0.0001,1.0,1.0,1.0,0.9878,0.0,0.0,0.0,0.0001,1.0,1.0,1.0,0.9946,0.0,0.0,0.0,0.0001,1.0,0.9996,1.0,0.997,0.0,0.0,0.0,0.0001,1.0,0.999,1.0,0.9978,0.0,0.0,0.0,0.0001,1.0,0.6174,1.0,0.9982,0.0,0.0,0.0,0.0001,1.0,0.9823,1.0,0.9988,0.0,0.0001,0.0,0.0,0.0,0.0001,1.0,0.9992,0.0,0.0,0.0,0.0,0.0,0.0038,1.0,0.9995,0.0,0.0,0.0,0.0
NG_CF,LSTMFCN,4082,1,2,49.6427,0.0643,0.0,1.6181,50.503,6.5989,0.9524,1.0,0.9934,0.0,0.0966,1.0,0.9524,0.0,0.4038,1.0,0.9608,0.0,0.0063,1.0,0.6161,0.0,0.0234,1.0,0.9824,0.0,0.0003,0.0,0.0413,0.0,0.0008,1.0,0.9306,0.0,0.0,0.0,0.0129,0.0,0.0001,1.0,0.7862,0.0,0.0,0.0,0.0102,0.0,0.0,1.0,0.701,0.0,0.0,0.0,0.0031,0.0,0.0,1.0,0.9331,0.0,0.0,0.0,0.001,0.0,0.0,1.0,0.984,0.0,0.0,0.0,0.0097,0.0,0.0,1.0,0.8814,0.0,0.0,0.0,0.0035,0.0,0.0,0.0,0.4651,0.0,0.0,0.0,0.0001,0.0,0.0,0.0,0.0843,0.0,0.0,0.0,0.0101,0.0,0.0
NG_CF,LSTMFCN,3969,1,1,45.6205,0.1143,0.1,3.2935,42.3539,5.1633,0.381,1.0,0.953,0.0,0.0132,1.0,0.381,0.0,0.0004,1.0,0.917,0.0,0.0006,0.0,0.4307,0.0,0.0,1.0,0.9554,0.0,0.0002,1.0,0.471,0.0,0.0,1.0,0.924,0.0,0.0001,1.0,0.3972,0.0,0.0,0.0,0.2949,0.0,0.0001,1.0,0.5788,0.0,0.0,1.0,0.9552,0.0,0.0001,1.0,0.5825,0.0,0.0,1.0,0.8765,0.0,0.0002,1.0,0.9725,0.0,0.0,0.0,0.0645,0.0,0.0003,1.0,0.8991,0.0,0.0,1.0,0.92,0.0,0.0004,1.0,0.8103,0.0,0.0,1.0,0.6421,0.0,0.0006,1.0,0.643,0.0,0.0,1.0,0.5013,0.0,0.0006,0.0,0.1977,0.0,0.0
NG_CF,LSTMFCN,3016,1,2,48.166,0.0786,0.0,3.0097,47.179,5.4301,0.3936,1.0,0.9533,0.0,0.0027,1.0,0.3936,0.0,0.2591,1.0,0.9138,0.0,0.0041,0.0,0.1284,0.0,0.0102,1.0,0.9679,0.0,0.0013,0.0,0.1466,0.0,0.0006,1.0,0.873,0.0,0.0003,0.0,0.0308,0.0,0.0002,1.0,0.7911,0.0,0.0001,0.0,0.0195,0.0,0.0,1.0,0.9587,0.0,0.0001,0.0,0.001,0.0,0.0,1.0,0.6969,0.0,0.0001,0.0,0.0057,0.0,0.0,1.0,0.9461,0.0,0.0002,0.0,0.0047,0.0,0.0,1.0,0.8395,0.0,0.0002,0.0,0.0022,0.0,0.0,0.0,0.2446,0.0,0.0003,0.0,0.0024,0.0,0.0,0.0,0.0468,0.0,0.0004,0.0,0.0007,0.0,0.0
NG_CF,LSTMFCN,270,0,3,36.8847,0.2286,0.2,2.74,38.8201,4.7301,0.6724,1.0,0.9999,1.0,0.8903,1.0,0.6724,0.0,0.0006,1.0,1.0,1.0,0.7547,0.0,0.1128,0.0,0.0002,1.0,1.0,1.0,0.8714,0.0,0.0026,0.0,0.0002,1.0,1.0,1.0,0.9649,0.0,0.0,0.0,0.0002,1.0,1.0,1.0,0.9913,0.0,0.0,0.0,0.0003,1.0,0.9999,1.0,0.9955,0.0,0.0,0.0,0.0007,1.0,0.9951,1.0,0.9972,0.0,0.0,0.0,0.0015,1.0,0.9681,1.0,0.9984,0.0,0.0008,0.0,0.0013,0.0,0.0326,1.0,0.999,0.0,0.0001,0.0,0.0006,0.0,0.0032,1.0,0.9994,0.0,0.0,0.0,0.0003,0.0,0.0001,1.0,0.9996,0.0,0.0,0.0,0.0002
NG_CF,LSTMFCN,2293,0,3,55.5357,0.1643,0.0,2.0406,44.8635,5.1989,0.5389,1.0,0.9997,1.0,0.9191,1.0,0.5389,0.0,0.0195,1.0,0.9999,1.0,0.9564,0.0,0.0625,0.0,0.0036,1.0,1.0,1.0,0.984,0.0,0.0013,0.0,0.0022,1.0,1.0,1.0,0.9863,0.0,0.0001,0.0,0.0016,1.0,0.9999,1.0,0.9867,0.0,0.0,0.0,0.0017,1.0,0.9944,1.0,0.987,0.0,0.0,0.0,0.002,1.0,0.9988,1.0,0.988,0.0,0.0007,0.0,0.0012,1.0,0.9822,1.0,0.9912,0.0,0.001,0.0,0.0004,0.0,0.0396,1.0,0.9952,0.0,0.0,0.0,0.0001,0.0,0.0094,1.0,0.9977,0.0,0.0,0.0,0.0001,0.0,0.0,1.0,0.9987,0.0,0.0,0.0,0.0
NG_CF,LSTMFCN,317,0,3,43.357,0.1429,0.0,2.4219,49.936,6.2423,0.477,1.0,0.9999,1.0,0.9621,1.0,0.477,0.0,0.0219,1.0,0.9999,1.0,0.9776,0.0,0.0722,0.0,0.005,1.0,1.0,1.0,0.9955,0.0,0.0011,0.0,0.0011,1.0,1.0,1.0,0.9969,0.0,0.0,0.0,0.0003,1.0,1.0,1.0,0.9939,0.0,0.0,0.0,0.0003,1.0,1.0,1.0,0.9922,0.0,0.0004,0.0,0.0002,1.0,0.9991,1.0,0.9946,0.0,0.0,0.0,0.0002,1.0,0.987,1.0,0.9972,0.0,0.0002,0.0,0.0001,1.0,0.8136,1.0,0.9986,0.0,0.0001,0.0,0.0,0.0,0.1128,1.0,0.999,0.0,0.0,0.0,0.0,0.0,0.0033,1.0,0.9993,0.0,0.0,0.0,0.0
NG_CF,LSTMFCN,4145,1,2,857.6792,0.0929,0.0,1.9539,40.0119,5.1033,0.5636,1.0,0.9821,0.0,0.0005,1.0,0.5636,0.0,0.4745,1.0,0.9579,0.0,0.0001,0.0,0.0362,0.0,0.0173,1.0,0.9888,0.0,0.0,0.0,0.0215,0.0,0.0003,1.0,0.9797,0.0,0.0,0.0,0.0094,0.0,0.0,1.0,0.871,0.0,0.0,0.0,0.0024,0.0,0.0,1.0,0.9983,0.0,0.0,0.0,0.0014,0.0,0.0,1.0,0.9755,0.0,0.0,0.0,0.0054,0.0,0.0,1.0,0.8912,0.0,0.0,0.0,0.0003,0.0,0.0,1.0,0.7264,0.0,0.0,0.0,0.0722,0.0,0.0,1.0,0.9681,0.0,0.0,0.0,0.0001,0.0,0.0,0.0,0.1452,0.0,0.0,0.0,0.0042,0.0,0.0
