Method,Dataset,Sample_Index,Original_Class,Counterfactual_Class,Generation_Time,Tp_Sparsity,Seg_Sparsity,L1,L2,DTW,Orig_Rob_Gauss_eps0.00,Orig_Conf_Gauss_eps0.00,Orig_Rob_Adv_eps0.00,Orig_Conf_Adv_eps0.00,CF_Rob_Gauss_eps0.00,CF_Conf_Gauss_eps0.00,CF_Rob_Adv_eps0.00,CF_Conf_Adv_eps0.00,Orig_Rob_Gauss_eps0.20,Orig_Conf_Gauss_eps0.20,Orig_Rob_Adv_eps0.20,Orig_Conf_Adv_eps0.20,CF_Rob_Gauss_eps0.20,CF_Conf_Gauss_eps0.20,CF_Rob_Adv_eps0.20,CF_Conf_Adv_eps0.20,Orig_Rob_Gauss_eps0.40,Orig_Conf_Gauss_eps0.40,Orig_Rob_Adv_eps0.40,Orig_Conf_Adv_eps0.40,CF_Rob_Gauss_eps0.40,CF_Conf_Gauss_eps0.40,CF_Rob_Adv_eps0.40,CF_Conf_Adv_eps0.40,Orig_Rob_Gauss_eps0.60,Orig_Conf_Gauss_eps0.60,Orig_Rob_Adv_eps0.60,Orig_Conf_Adv_eps0.60,CF_Rob_Gauss_eps0.60,CF_Conf_Gauss_eps0.60,CF_Rob_Adv_eps0.60,CF_Conf_Adv_eps0.60,Orig_Rob_Gauss_eps0.80,Orig_Conf_Gauss_eps0.80,Orig_Rob_Adv_eps0.80,Orig_Conf_Adv_eps0.80,CF_Rob_Gauss_eps0.80,CF_Conf_Gauss_eps0.80,CF_Rob_Adv_eps0.80,CF_Conf_Adv_eps0.80,Orig_Rob_Gauss_eps1.00,Orig_Conf_Gauss_eps1.00,Orig_Rob_Adv_eps1.00,Orig_Conf_Adv_eps1.00,CF_Rob_Gauss_eps1.00,CF_Conf_Gauss_eps1.00,CF_Rob_Adv_eps1.00,CF_Conf_Adv_eps1.00,Orig_Rob_Gauss_eps1.20,Orig_Conf_Gauss_eps1.20,Orig_Rob_Adv_eps1.20,Orig_Conf_Adv_eps1.20,CF_Rob_Gauss_eps1.20,CF_Conf_Gauss_eps1.20,CF_Rob_Adv_eps1.20,CF_Conf_Adv_eps1.20,Orig_Rob_Gauss_eps1.40,Orig_Conf_Gauss_eps1.40,Orig_Rob_Adv_eps1.40,Orig_Conf_Adv_eps1.40,CF_Rob_Gauss_eps1.40,CF_Conf_Gauss_eps1.40,CF_Rob_Adv_eps1.40,CF_Conf_Adv_eps1.40,Orig_Rob_Gauss_eps1.60,Orig_Conf_Gauss_eps1.60,Orig_Rob_Adv_eps1.60,Orig_Conf_Adv_eps1.60,CF_Rob_Gauss_eps1.60,CF_Conf_Gauss_eps1.60,CF_Rob_Adv_eps1.60,CF_Conf_Adv_eps1.60,Orig_Rob_Gauss_eps1.80,Orig_Conf_Gauss_eps1.80,Orig_Rob_Adv_eps1.80,Orig_Conf_Adv_eps1.80,CF_Rob_Gauss_eps1.80,CF_Conf_Gauss_eps1.80,CF_Rob_Adv_eps1.80,CF_Conf_Adv_eps1.80,Orig_Rob_Gauss_eps2.00,Orig_Conf_Gauss_eps2.00,Orig_Rob_Adv_eps2.00,Orig_Conf_Adv_eps2.00,CF_Rob_Gauss_eps2.00,CF_Conf_Gauss_eps2.00,CF_Rob_Adv_eps2.00,CF_Conf_Adv_eps2.00
AB_CF,ECG200,37,1,0,0.312,0.0729,0.0,57.7999,8.2854,1.6382,1.0,0.9957574009895325,0.0,0.009568541310727596,1.0,0.843341052532196,1.0,0.9999560117721558,1.0,0.9903167486190796,0.0,0.0018891977379098535,1.0,0.9505339860916138,1.0,0.9999406337738037,1.0,0.9991662502288818,0.0,0.0010649890173226595,0.0,0.49171024560928345,1.0,0.9999103546142578,1.0,0.9999517202377319,0.0,0.0014040304813534021,1.0,0.7649983763694763,1.0,0.9997422099113464,1.0,0.9997504353523254,0.0,0.0033970982767641544,0.0,0.007287493906915188,1.0,0.9984309077262878,1.0,0.9999991655349731,0.0,0.007485677022486925,0.0,0.0007331346860155463,1.0,0.9861037135124207,1.0,0.9999988079071045,0.0,0.011818097904324532,0.0,0.0013598176883533597,1.0,0.8874569535255432,1.0,0.9999996423721313,0.0,0.01680385135114193,0.0,1.3819000166392925e-08,1.0,0.678047239780426,1.0,1.0,0.0,0.0208783857524395,0.0,2.1501000446733087e-07,0.0,0.38492351770401,1.0,1.0,0.0,0.02836335264146328,0.0,1.1126270038630537e-07,0.0,0.1495119333267212,1.0,1.0,0.0,0.04284752160310745,0.0,5.553027371263397e-09,0.0,0.026760302484035492
AB_CF,ECG200,26,0,1,0.5806,0.7188,0.7,6.1453,1.3442,0.8482,1.0,0.9041024446487427,1.0,0.9999204874038696,1.0,0.54590904712677,0.0,0.00012219509517308325,1.0,0.9597635865211487,1.0,0.9998038411140442,0.0,0.3947221636772156,0.0,7.790326344547793e-05,1.0,0.8481578826904297,1.0,0.9993109703063965,1.0,0.6033629179000854,0.0,7.209383329609409e-05,1.0,0.8306549787521362,1.0,0.9974557757377625,0.0,0.14805468916893005,0.0,7.633811765117571e-05,0.0,0.026533961296081543,1.0,0.9886903762817383,1.0,0.998457670211792,0.0,7.075211760820821e-05,0.0,0.0007304319879040122,1.0,0.9430534839630127,1.0,0.9418470859527588,0.0,5.626399797620252e-05,0.0,2.8536305762827396e-05,1.0,0.8013116717338562,1.0,0.9997742772102356,0.0,5.4391504818340763e-05,0.0,0.0004056082107126713,1.0,0.611669659614563,1.0,0.9999998807907104,0.0,7.284127786988392e-05,0.0,9.207607035932597e-06,0.0,0.4648926854133606,1.0,0.9999955892562866,0.0,0.00015221041394397616,0.0,5.34995888301637e-06,0.0,0.4484105706214905,1.0,1.0,0.0,0.00048619930748827755,0.0,2.984425762075915e-10,1.0,0.5248169898986816,1.0,1.0,0.0,0.0023213904350996017
AB_CF,ECG200,41,1,0,0.2831,0.5312,0.5,20.0988,3.3248,1.6648,1.0,0.7416480779647827,0.0,0.0009101115283556283,1.0,0.596175491809845,1.0,0.9976382255554199,1.0,0.593644380569458,0.0,0.0006879084976390004,1.0,0.7076765298843384,1.0,0.9968743324279785,1.0,0.7439820766448975,0.0,0.0006141528720036149,0.0,0.48189815878868103,1.0,0.9962687492370605,0.0,0.4437338411808014,0.0,0.0006347285816445947,0.0,0.365251362323761,1.0,0.9933506846427917,1.0,0.9868174195289612,0.0,0.0006850003264844418,0.0,0.01606917567551136,1.0,0.9866162538528442,1.0,0.9966458678245544,0.0,0.0007526865811087191,0.0,0.001958449836820364,1.0,0.9743004441261292,1.0,0.9991123080253601,0.0,0.0010361369932070374,0.0,1.4472973361989716e-06,1.0,0.929534375667572,1.0,0.9999997615814209,0.0,0.0021180028561502695,0.0,2.2435087885241956e-06,1.0,0.8265072703361511,1.0,1.0,0.0,0.00366493733599782,0.0,4.011252718871816e-10,1.0,0.6093818545341492,1.0,1.0,0.0,0.005540151614695787,0.0,1.6244410059717412e-13,0.0,0.45547014474868774,1.0,1.0,0.0,0.01105570513755083,0.0,2.540923721428001e-11,0.0,0.3981184959411621
AB_CF,ECG200,35,1,0,0.2773,0.8229,0.8,5.6446,1.7672,0.7059,1.0,0.743794858455658,0.0,4.635873483493924e-05,1.0,0.6301296949386597,1.0,0.9999439716339111,1.0,0.7830595970153809,0.0,1.0808659681060817e-05,1.0,0.7736631035804749,1.0,0.9996849298477173,1.0,0.8312796354293823,0.0,6.059981387807056e-06,0.0,0.06191128119826317,1.0,0.9984815716743469,0.0,0.35314658284187317,0.0,8.257747140305582e-06,0.0,0.05474892258644104,1.0,0.9882851839065552,1.0,0.9910891056060791,0.0,2.6587727916194126e-05,0.0,0.0003436765691731125,1.0,0.7772685885429382,1.0,0.9999988079071045,0.0,0.00013355912233237177,0.0,7.719378481851891e-05,0.0,0.1334218531847,1.0,0.9996384382247925,0.0,0.000698627030942589,0.0,7.208255681234732e-08,0.0,0.022943299263715744,1.0,0.9999995231628418,0.0,0.0037853498943150043,0.0,6.796178553258869e-08,0.0,0.007927663624286652,1.0,0.9999982118606567,0.0,0.021033193916082382,0.0,1.2444058228311405e-08,0.0,0.004951118491590023,1.0,1.0,0.0,0.14480668306350708,0.0,8.690277664147317e-11,0.0,0.003746217582374811,1.0,1.0,1.0,0.7184420228004456,0.0,7.705994731210808e-10,0.0,0.0023291758261621
AB_CF,ECG200,77,1,0,0.2756,0.8125,0.8,7.7705,2.0083,0.8109,1.0,0.9760311245918274,0.0,0.00013147761637810618,1.0,0.5237271785736084,1.0,0.999850869178772,1.0,0.9843495488166809,0.0,3.317930895718746e-05,1.0,0.6195036768913269,1.0,0.999104917049408,1.0,0.9550650715827942,0.0,2.1674359231838025e-05,0.0,0.4537939429283142,1.0,0.9936038851737976,1.0,0.9998507499694824,0.0,3.3524174796184525e-05,0.0,0.05233171582221985,1.0,0.9388212561607361,1.0,0.9988151788711548,0.0,7.025185914244503e-05,0.0,0.03322060778737068,0.0,0.349149614572525,1.0,0.9999353885650635,0.0,0.0002189857914345339,0.0,0.00046648821444250643,0.0,0.016385208815336227,1.0,0.9999986886978149,0.0,0.0007578759687021375,0.0,2.0405679606483318e-05,0.0,0.0012155153090134263,1.0,0.9999998807907104,0.0,0.003052829299122095,0.0,2.152358320017811e-05,0.0,0.00031915612635202706,1.0,0.9999978542327881,0.0,0.01519471313804388,0.0,1.6414842818335273e-09,0.0,0.00012727983994409442,1.0,1.0,0.0,0.10721595585346222,0.0,2.1909178471446467e-08,0.0,8.19115957710892e-05,1.0,1.0,1.0,0.5124946236610413,0.0,9.51418852454197e-16,0.0,5.4663662012899294e-05
AB_CF,ECG200,21,1,0,0.3374,0.3438,0.3,46.5127,8.5745,2.2616,1.0,0.9998657703399658,0.0,0.029087578877806664,1.0,0.826074481010437,1.0,0.9993693232536316,1.0,0.9998593330383301,0.0,0.003355309134349227,0.0,0.4151671826839447,1.0,0.9907568097114563,1.0,0.9997058510780334,0.0,0.0012482288293540478,0.0,0.08743418753147125,1.0,0.8396362662315369,1.0,0.9999860525131226,0.0,0.001035431050695479,0.0,0.004023554269224405,0.0,0.17467036843299866,1.0,0.9999755620956421,0.0,0.0014092441415414214,0.0,6.459630185418064e-06,0.0,0.012209615670144558,1.0,0.9999990463256836,0.0,0.0028935696464031935,0.0,9.093768653656298e-07,0.0,0.0013271865900605917,1.0,1.0,0.0,0.006312570068985224,0.0,3.3331133408864844e-08,0.0,0.0002260299224872142,1.0,1.0,0.0,0.014380165375769138,0.0,6.362573685692041e-07,0.0,4.617232843884267e-05,1.0,1.0,0.0,0.026066739112138748,0.0,3.9709341592697456e-08,0.0,1.1362948498572223e-05,1.0,1.0,0.0,0.0807635560631752,0.0,7.637470100796406e-10,0.0,5.723120921174996e-06,1.0,1.0,0.0,0.2505786716938019,0.0,1.5169754287360643e-13,0.0,3.1840165775065543e-06
AB_CF,ECG200,50,1,0,0.3055,0.25,0.2,49.6503,7.4418,2.2986,1.0,0.9996368885040283,0.0,0.005442226771265268,1.0,0.8807005882263184,1.0,0.9999489784240723,1.0,0.999646782875061,0.0,0.0010516984621062875,0.0,0.37799185514450073,1.0,0.9992328882217407,1.0,0.9999721050262451,0.0,0.0003942639450542629,0.0,0.11733667552471161,1.0,0.9858900308609009,1.0,0.9999183416366577,0.0,0.000375113362679258,0.0,0.004601680673658848,1.0,0.7566574811935425,1.0,0.9999979734420776,0.0,0.0008718984900042415,0.0,3.5956196597908274e-07,0.0,0.1928144097328186,1.0,0.9999996423721313,0.0,0.0024361126124858856,0.0,5.803162395068284e-09,0.0,0.034503690898418427,1.0,1.0,0.0,0.009144900366663933,0.0,4.512921077548526e-05,0.0,0.010695885866880417,1.0,1.0,0.0,0.03598405793309212,0.0,5.79843137954862e-15,0.0,0.0038504041731357574,1.0,1.0,0.0,0.19687995314598083,0.0,1.91090481112266e-12,0.0,0.0018338251393288374,1.0,1.0,1.0,0.6830775737762451,0.0,4.805648240457927e-11,0.0,0.0011240204330533743,1.0,1.0,1.0,0.9502764344215393,0.0,5.260130188986369e-16,0.0,0.0007896345341578126
AB_CF,ECG200,96,1,0,0.2883,0.3438,0.3,21.4468,3.4718,1.2588,1.0,0.996971845626831,0.0,0.0006789765320718288,1.0,0.8038673996925354,1.0,0.9999547004699707,1.0,0.9849680066108704,0.0,0.00012206350220367312,1.0,0.5015206336975098,1.0,0.9994441866874695,1.0,0.9993784427642822,0.0,7.639390241820365e-05,0.0,0.17528367042541504,1.0,0.9951517581939697,1.0,0.9994524121284485,0.0,0.00012437885743565857,0.0,0.00018042100418824703,1.0,0.9576257467269897,1.0,0.9997307658195496,0.0,0.0002883239940274507,0.0,2.743643563007936e-06,1.0,0.6135808825492859,1.0,0.9999903440475464,0.0,0.00046264060074463487,0.0,1.047824849109702e-08,0.0,0.12913008034229279,1.0,0.999980092048645,0.0,0.0008862430113367736,0.0,1.400778046445339e-06,0.0,0.017871079966425896,1.0,1.0,0.0,0.0028581072110682726,0.0,1.0069359568376512e-08,0.0,0.0024365969002246857,1.0,1.0,0.0,0.01444295048713684,0.0,3.1939043076967266e-10,0.0,0.0005559587734751403,1.0,1.0,0.0,0.06887463480234146,0.0,2.130617238194077e-09,0.0,0.00020932630286552012,1.0,1.0,0.0,0.30121004581451416,0.0,2.3993665387855856e-10,0.0,4.677353717852384e-05
AB_CF,ECG200,72,1,0,0.2928,0.3646,0.3,17.0569,2.789,1.1255,1.0,0.9951689839363098,0.0,0.005271828267723322,1.0,0.6499051451683044,1.0,0.9999027252197266,1.0,0.9954990744590759,0.0,0.000465516495751217,0.0,0.3644654452800751,1.0,0.9985634684562683,1.0,0.998979389667511,0.0,9.55530340434052e-05,0.0,0.009218686260282993,1.0,0.983826220035553,1.0,0.999642014503479,0.0,4.1229221096728e-05,0.0,0.029274597764015198,1.0,0.8080775737762451,1.0,0.9999523162841797,0.0,2.184260119975079e-05,0.0,1.321716240454407e-06,0.0,0.2767646610736847,1.0,0.9999991655349731,0.0,1.5571655239909887e-05,0.0,1.7774486877897289e-06,0.0,0.04915209859609604,1.0,1.0,0.0,1.3114232388033997e-05,0.0,5.4651870584621065e-08,0.0,0.011849201284348965,1.0,1.0,0.0,1.4764614206796978e-05,0.0,1.0577952735957297e-07,0.0,0.0031338001135736704,1.0,1.0,0.0,1.5603243809891865e-05,0.0,1.6010120746506873e-12,0.0,0.0015065824845805764,1.0,1.0,0.0,1.7413918612874113e-05,0.0,8.854087601983807e-12,0.0,0.0010398735757917166,1.0,1.0,0.0,1.8371658370597288e-05,0.0,2.6927936876836034e-12,0.0,0.0005690971738658845
AB_CF,ECG200,40,1,0,0.3003,0.1562,0.1,54.8053,7.848,1.6533,1.0,0.9999452829360962,0.0,0.013264085166156292,1.0,0.9801432490348816,1.0,0.9999711513519287,1.0,0.9999539852142334,0.0,0.0035902883391827345,1.0,0.9569977521896362,1.0,0.9994563460350037,1.0,0.9999698400497437,0.0,0.0020954094361513853,0.0,0.258258193731308,1.0,0.985822856426239,1.0,0.9999972581863403,0.0,0.0028882184997200966,0.0,1.9184473785571754e-05,1.0,0.6314350366592407,1.0,0.9999980926513672,0.0,0.0071480185724794865,0.0,3.583070622426021e-07,0.0,0.057591892778873444,1.0,0.9999997615814209,0.0,0.02928132563829422,0.0,3.1681623990920116e-09,0.0,0.005341148003935814,1.0,1.0,0.0,0.08366654813289642,0.0,5.912635714366843e-08,0.0,0.0014386230614036322,1.0,1.0,0.0,0.21444827318191528,0.0,1.372485680661839e-08,0.0,0.0005028651794418693,1.0,1.0,0.0,0.45788225531578064,0.0,1.1316243081482824e-10,0.0,0.000306071771774441,1.0,1.0,1.0,0.8070356845855713,0.0,1.1174319108908648e-10,0.0,0.0002589164359960705,1.0,1.0,1.0,0.9570795297622681,0.0,1.0378289894141801e-10,0.0,0.00021723972167819738
AB_CF,ECG200,83,1,0,0.3535,0.1562,0.1,53.0889,7.427,1.7265,1.0,0.9999339580535889,0.0,0.005172773730009794,1.0,0.8015995621681213,1.0,0.9996654987335205,1.0,0.9998180270195007,0.0,0.0009209272684529424,1.0,0.5194917321205139,1.0,0.9935617446899414,1.0,0.9999359846115112,0.0,0.0003533547278493643,0.0,0.3178948163986206,1.0,0.9273136258125305,1.0,0.9999685287475586,0.0,0.00023672982933931053,0.0,0.017782114446163177,0.0,0.4758448004722595,1.0,0.9999994039535522,0.0,0.00024213353754021227,0.0,0.00011559349513845518,0.0,0.04827744886279106,1.0,0.9999953508377075,0.0,0.00038216932443901896,0.0,2.064705768134445e-06,0.0,0.009218494407832623,1.0,0.9999998807907104,0.0,0.0006802366115152836,0.0,2.07222015546904e-07,0.0,0.0034288314636796713,1.0,1.0,0.0,0.0010616477811709046,0.0,7.002996653682203e-07,0.0,0.0018411006312817335,1.0,1.0,0.0,0.002012391574680805,0.0,4.70688199527558e-09,0.0,0.0012101567117497325,1.0,1.0,0.0,0.009301549755036831,0.0,6.028992860507287e-10,0.0,0.000974068942014128,1.0,1.0,0.0,0.10600566118955612,0.0,5.556936204589857e-13,0.0,0.0007630199543200433
AB_CF,ECG200,82,1,0,0.332,0.1667,0.1,17.741,2.5237,1.5032,1.0,0.9236928224563599,0.0,0.0008256361470557749,1.0,0.6385692358016968,1.0,0.9998369216918945,1.0,0.736286997795105,0.0,0.00013064529048278928,1.0,0.6525480151176453,1.0,0.9990500807762146,1.0,0.978461503982544,0.0,6.704728730255738e-05,0.0,0.23880250751972198,1.0,0.9946070313453674,1.0,0.9798493385314941,0.0,0.00010327126801712438,0.0,0.00015055190306156874,1.0,0.9573789238929749,1.0,0.9995142221450806,0.0,0.00024117321299854666,0.0,0.00010955986363114789,1.0,0.5566044449806213,1.0,0.9999954700469971,0.0,0.0005191693198867142,0.0,1.1198204447282478e-05,0.0,0.11442988365888596,1.0,1.0,0.0,0.001022521173581481,0.0,1.3092352979526822e-08,0.0,0.0334826335310936,1.0,0.9999996423721313,0.0,0.002188531681895256,0.0,5.8999958696404065e-08,0.0,0.012872361578047276,1.0,1.0,0.0,0.006806184072047472,0.0,3.3733853488371324e-09,0.0,0.005157174076884985,1.0,1.0,0.0,0.06602635234594345,0.0,7.819016267784917e-11,0.0,0.002825201489031315,1.0,1.0,0.0,0.42872652411460876,0.0,8.400519863061007e-12,0.0,0.0016991897718980908
AB_CF,ECG200,43,1,0,0.3056,0.25,0.2,40.7501,6.5286,1.5958,1.0,0.9999126195907593,0.0,0.017401497811079025,1.0,0.865426242351532,1.0,0.9998949766159058,1.0,0.9998687505722046,0.0,0.0029697150457650423,1.0,0.585541844367981,1.0,0.9976010918617249,1.0,0.9999449253082275,0.0,0.0014805418904870749,0.0,0.04807707667350769,1.0,0.9057635068893433,1.0,0.999993085861206,0.0,0.0015670567518100142,0.0,2.6536710720392875e-05,0.0,0.13891609013080597,1.0,0.9999651908874512,0.0,0.0025558308698236942,0.0,4.653814357880037e-06,0.0,0.010312387719750404,1.0,0.9999994039535522,0.0,0.003930994309484959,0.0,1.5392497942912087e-08,0.0,0.0018109262455254793,1.0,0.9999995231628418,0.0,0.005057303234934807,0.0,1.4508674262003751e-08,0.0,0.0006128103705123067,1.0,0.9999992847442627,0.0,0.007016458548605442,0.0,2.362213979978378e-09,0.0,0.0003472203097771853,1.0,1.0,0.0,0.008894587866961956,0.0,8.05354360977617e-09,0.0,0.0002859590167645365,1.0,1.0,0.0,0.01572890765964985,0.0,9.475272129411128e-12,0.0,0.0002609672665130347,1.0,1.0,0.0,0.03113187476992607,0.0,3.3829986338315687e-13,0.0,0.00023632297234144062
AB_CF,ECG200,28,0,1,0.5999,0.625,0.6,21.1432,4.5753,1.5307,1.0,0.9814736247062683,1.0,0.9999463558197021,1.0,0.8411689400672913,0.0,0.001002918928861618,1.0,0.966598629951477,1.0,0.9998642206192017,1.0,0.7089810371398926,0.0,7.772777462378144e-05,1.0,0.953036904335022,1.0,0.9997003078460693,1.0,0.6742032766342163,0.0,2.2782196538173594e-05,0.0,0.2817682921886444,1.0,0.9993707537651062,1.0,0.9119384288787842,0.0,1.5827477909624577e-05,0.0,0.000589298433624208,1.0,0.998897910118103,1.0,0.9926536083221436,0.0,2.3730663087917492e-05,0.0,6.17954065091908e-05,1.0,0.9982484579086304,1.0,0.9999744892120361,0.0,4.513463136390783e-05,0.0,3.4501405025366694e-05,1.0,0.9966446161270142,1.0,0.9999990463256836,0.0,8.120881830109283e-05,0.0,2.2329432747270062e-10,1.0,0.9904333353042603,1.0,0.9999998807907104,0.0,0.00014595285756513476,0.0,8.418764423367975e-07,1.0,0.9513890147209167,1.0,1.0,0.0,0.00023715566203463823,0.0,2.3220696199199864e-11,1.0,0.5675992369651794,1.0,1.0,0.0,0.0003528741654008627,0.0,4.258843278037716e-11,0.0,0.07711853086948395,1.0,1.0,0.0,0.00048048701137304306
AB_CF,ECG200,86,0,1,0.6074,0.4375,0.4,16.1963,3.3647,1.6596,1.0,0.7618712782859802,1.0,0.9995563626289368,1.0,0.8459278345108032,0.0,0.0008053696947172284,1.0,0.8320527672767639,1.0,0.9983783960342407,1.0,0.8049625158309937,0.0,0.00015801226254552603,1.0,0.526208221912384,1.0,0.995732843875885,1.0,0.9441030621528625,0.0,9.862476144917309e-05,1.0,0.8850328922271729,1.0,0.9862760305404663,1.0,0.9938005805015564,0.0,0.00017790823767427355,0.0,0.2997075617313385,1.0,0.9673305153846741,1.0,0.9992907047271729,0.0,0.0007291916408576071,0.0,3.839293640339747e-05,1.0,0.9512404203414917,1.0,0.9999998807907104,0.0,0.004013747908174992,0.0,1.077245906344615e-05,1.0,0.9372014403343201,1.0,1.0,0.0,0.03227668255567551,0.0,1.2450846043066122e-06,1.0,0.8712998032569885,1.0,1.0,0.0,0.3608459532260895,0.0,3.157859751468095e-08,1.0,0.5843934416770935,1.0,1.0,1.0,0.9491506814956665,0.0,1.7716672573442338e-10,0.0,0.1358490139245987,1.0,1.0,1.0,0.9987660646438599,0.0,2.4377168686418038e-11,0.0,0.020637398585677147,1.0,1.0,1.0,0.9999547004699707
AB_CF,ECG200,20,0,1,0.5883,0.9062,0.9,4.2879,1.4772,0.8219,1.0,0.9853901863098145,1.0,0.9996809959411621,1.0,0.6994221806526184,0.0,0.007742051966488361,1.0,0.9879257678985596,1.0,0.9833926558494568,1.0,0.9293484687805176,0.0,0.0006371147464960814,0.0,0.02161967195570469,0.0,0.17586015164852142,1.0,0.9974155426025391,0.0,0.00044257481931708753,0.0,0.0016141689848154783,0.0,0.005280482582747936,1.0,0.9999973773956299,0.0,0.0006192844593897462,0.0,0.0002000825188588351,0.0,0.000675222254358232,1.0,0.9999995231628418,0.0,0.002288687275722623,0.0,1.1955292222864955e-07,0.0,0.00022371948580257595,1.0,0.9999998807907104,0.0,0.012290485203266144,0.0,6.103590521888691e-09,0.0,0.00012091235112166032,1.0,1.0,0.0,0.0952264741063118,0.0,2.542193442423013e-07,0.0,7.274326344486326e-05,1.0,1.0,0.0,0.4017897844314575,0.0,4.294006469840461e-11,0.0,5.474839053931646e-05,1.0,1.0,1.0,0.6306329965591431,0.0,7.925157383646686e-14,0.0,5.355594839784317e-05,1.0,1.0,1.0,0.7620865106582642,0.0,1.1294436740028058e-11,0.0,5.537067772820592e-05,1.0,1.0,1.0,0.793308675289154
AB_CF,ECG200,32,0,1,0.5692,0.9062,0.9,7.6627,2.6174,0.8198,1.0,0.6582567691802979,1.0,0.9999531507492065,1.0,0.8497350215911865,0.0,0.00019962689839303493,1.0,0.8570504188537598,1.0,0.9997791647911072,0.0,0.4980471432209015,0.0,2.885392495954875e-05,1.0,0.9544092416763306,1.0,0.9985442161560059,0.0,0.2053948938846588,0.0,1.798564517230261e-05,0.0,0.06608890742063522,1.0,0.9886825680732727,1.0,0.998760461807251,0.0,3.775503864744678e-05,0.0,0.007341815158724785,1.0,0.8973068594932556,1.0,0.9998071789741516,0.0,0.00013531651347875595,0.0,0.00016216713993344456,1.0,0.572642982006073,1.0,0.9983738660812378,0.0,0.0004429312248248607,0.0,3.102951086475514e-05,0.0,0.3153597116470337,1.0,0.999994158744812,0.0,0.0020041284151375294,0.0,3.3858933079500275e-07,0.0,0.1791173368692398,1.0,1.0,0.0,0.024397268891334534,0.0,9.836778502858579e-09,0.0,0.10200672596693039,1.0,1.0,0.0,0.28888052701950073,0.0,2.0357411589788654e-10,0.0,0.05032489076256752,1.0,1.0,1.0,0.8010079860687256,0.0,3.328924050478854e-13,0.0,0.023177631199359894,1.0,1.0,1.0,0.9707155227661133
AB_CF,ECG200,6,1,0,0.3426,0.3438,0.3,38.6128,6.2848,1.5619,1.0,0.7846788763999939,0.0,5.7003071560757235e-05,1.0,0.8693841695785522,1.0,0.9998931884765625,1.0,0.7487747669219971,0.0,4.060432911501266e-05,1.0,0.7803448438644409,1.0,0.9998413324356079,1.0,0.9019355773925781,0.0,5.063959542894736e-05,1.0,0.9097385406494141,1.0,0.9997836947441101,1.0,0.9884501695632935,0.0,7.278267003130168e-05,1.0,0.9383029937744141,1.0,0.9995425939559937,0.0,0.4835944175720215,0.0,0.0001149873060057871,0.0,0.02345677651464939,1.0,0.9976215958595276,1.0,0.9999761581420898,0.0,0.0002070252230623737,0.0,0.010314236395061016,1.0,0.9749667644500732,1.0,0.9999843835830688,0.0,0.0005487270536832511,0.0,3.054254557355307e-05,1.0,0.8054372668266296,1.0,0.9999996423721313,0.0,0.0021173590794205666,0.0,9.596099062036956e-07,1.0,0.5704190731048584,1.0,1.0,0.0,0.00565703772008419,0.0,5.963768489891663e-05,0.0,0.40334510803222656,1.0,1.0,0.0,0.014661622233688831,0.0,3.08240224455858e-08,0.0,0.27572816610336304,1.0,1.0,0.0,0.1449248343706131,0.0,7.937756008047359e-11,0.0,0.19668573141098022
AB_CF,ECG200,3,1,0,0.3203,0.3438,0.3,23.2054,3.6989,1.3709,1.0,0.9973750114440918,0.0,0.009527244605123997,1.0,0.6937456727027893,1.0,0.9997743964195251,1.0,0.992885410785675,0.0,0.001689208671450615,1.0,0.7448199391365051,1.0,0.9957839846611023,1.0,0.9977962970733643,0.0,0.0008160753641277552,1.0,0.7830942273139954,1.0,0.9565744400024414,1.0,0.9992489218711853,0.0,0.0010922689689323306,0.0,0.0022475605364888906,1.0,0.7159773111343384,1.0,0.9999996423721313,0.0,0.0018856666283681989,0.0,2.093209150189068e-05,0.0,0.18242794275283813,1.0,0.9999243021011353,0.0,0.004252952989190817,0.0,0.012160669080913067,0.0,0.029730532318353653,1.0,1.0,0.0,0.00943176168948412,0.0,1.931167901148001e-07,0.0,0.005659881047904491,1.0,1.0,0.0,0.036488745361566544,0.0,1.7599424495529092e-07,0.0,0.0018298327922821045,1.0,1.0,0.0,0.13457565009593964,0.0,4.378483708933345e-07,0.0,0.0009669937426224351,1.0,1.0,0.0,0.3760296106338501,0.0,1.274482862995141e-11,0.0,0.0005808608257211745,1.0,1.0,1.0,0.6656683683395386,0.0,6.723563546195965e-12,0.0,0.0006276813801378012
AB_CF,ECG200,12,0,1,0.5821,0.9062,0.9,4.5259,1.8193,1.2029,1.0,0.7699925303459167,1.0,0.9962447285652161,1.0,0.6023604869842529,0.0,0.004494230262935162,1.0,0.7877061367034912,1.0,0.9863730669021606,1.0,0.6893350481987,0.0,0.0012796390801668167,0.0,0.3509853780269623,1.0,0.9555562734603882,1.0,0.8923076391220093,0.0,0.0006158617907203734,0.0,0.07996463030576706,1.0,0.8755126595497131,1.0,0.8639563322067261,0.0,0.0004826589720323682,0.0,0.170362651348114,1.0,0.6019111275672913,1.0,0.9841486811637878,0.0,0.0004106562992092222,0.0,1.3577230674854945e-05,0.0,0.16330547630786896,1.0,0.9998276233673096,0.0,0.00036338530480861664,0.0,1.846080408540729e-06,0.0,0.018611256033182144,1.0,0.9999998807907104,0.0,0.0003201660583727062,0.0,1.125950603864112e-07,0.0,0.0025448715314269066,1.0,0.9999992847442627,0.0,0.00021778434165753424,0.0,7.11540906195296e-08,0.0,0.00034825282637029886,1.0,1.0,0.0,0.00018923306197393686,0.0,8.105774185196424e-08,0.0,4.763438118970953e-05,1.0,1.0,0.0,0.0002362047234782949,0.0,3.289232818406984e-12,0.0,9.892180969472975e-06,1.0,1.0,0.0,0.0007206401787698269
AB_CF,ECG200,51,0,1,0.6146,0.5312,0.5,15.5861,2.6799,1.1415,1.0,0.9999405145645142,1.0,0.9999983310699463,1.0,0.755203127861023,0.0,0.009485753253102303,1.0,0.9997857213020325,1.0,0.9999703168869019,1.0,0.8073561191558838,0.0,0.00033851939952000976,1.0,0.854529857635498,1.0,0.9993023872375488,1.0,0.9917606115341187,0.0,0.00016142753884196281,1.0,0.8924252986907959,1.0,0.973334550857544,1.0,0.9999107122421265,0.0,0.0004532206803560257,0.0,2.2203516891750041e-07,1.0,0.6685875058174133,1.0,1.0,0.0,0.003505271626636386,0.0,6.311374249889923e-07,0.0,0.08327310532331467,1.0,1.0,0.0,0.03770219162106514,0.0,6.411571007447492e-08,0.0,0.0045297108590602875,1.0,0.9999998807907104,0.0,0.21553802490234375,0.0,1.7871776281097596e-10,0.0,0.0007841520709916949,1.0,1.0,1.0,0.8351898789405823,0.0,1.1749509809533265e-07,0.0,0.000311469251755625,1.0,1.0,1.0,0.9852623343467712,0.0,2.200576353084127e-11,0.0,0.00026708372752182186,1.0,1.0,1.0,0.9961798191070557,0.0,9.7876445988819e-14,0.0,0.0002927787718363106,1.0,1.0,1.0,0.9984655380249023
AB_CF,ECG200,84,0,1,0.6216,0.4375,0.4,38.1871,6.0301,1.5819,1.0,0.9986780285835266,1.0,0.9999970197677612,1.0,0.604340136051178,0.0,4.019625703222118e-05,1.0,0.9988306164741516,1.0,0.9999833106994629,0.0,0.12950220704078674,0.0,6.801158178859623e-06,1.0,0.9920123219490051,1.0,0.9999059438705444,1.0,0.5559111833572388,0.0,5.332401087798644e-06,1.0,0.9931831955909729,1.0,0.9989957213401794,0.0,0.40209218859672546,0.0,1.850956687121652e-05,1.0,0.7190660834312439,1.0,0.9822719097137451,1.0,0.997187077999115,0.0,0.00011850242299260572,0.0,0.00017993326764553785,1.0,0.8297733664512634,1.0,0.9997249245643616,0.0,0.0006969114183448255,0.0,0.00012328944285400212,0.0,0.45955905318260193,1.0,0.9999939203262329,0.0,0.0016317538684234023,0.0,2.343984206731875e-08,0.0,0.23025992512702942,1.0,0.9999945163726807,0.0,0.005369788967072964,0.0,0.0001246253086719662,0.0,0.12263522297143936,1.0,0.9999998807907104,0.0,0.02692580036818981,0.0,1.6905117306009743e-09,0.0,0.0881032720208168,1.0,1.0,0.0,0.20969723165035248,0.0,3.911156398750393e-10,0.0,0.07422877848148346,1.0,1.0,1.0,0.7144399881362915
AB_CF,ECG200,73,1,0,0.3567,0.3438,0.3,23.7522,3.7663,1.1932,1.0,0.9896167516708374,0.0,0.00028656047652475536,1.0,0.9440017342567444,1.0,0.9999738931655884,1.0,0.9864635467529297,0.0,2.1246029064059258e-05,1.0,0.9045770764350891,1.0,0.9996261596679688,1.0,0.9972811937332153,0.0,6.319604835880455e-06,0.0,0.1119275763630867,1.0,0.996670663356781,1.0,0.7734704613685608,0.0,5.284968665364431e-06,0.0,0.054123297333717346,1.0,0.9719020128250122,1.0,0.999920129776001,0.0,9.596715244697407e-06,0.0,0.00296496762894094,1.0,0.6406911015510559,1.0,0.9999852180480957,0.0,3.388684126548469e-05,0.0,6.0300131735857576e-05,0.0,0.11379814147949219,1.0,0.999998927116394,0.0,0.00018524006009101868,0.0,1.0316289262846112e-06,0.0,0.013161379843950272,1.0,0.9999995231628418,0.0,0.0014762699138373137,0.0,5.373833669719552e-11,0.0,0.0017128917388617992,1.0,0.9999997615814209,0.0,0.00867533776909113,0.0,3.848182883459117e-11,0.0,0.0003872320521622896,1.0,1.0,0.0,0.045384496450424194,0.0,2.9632711215366037e-12,0.0,0.00012929319927934557,1.0,1.0,0.0,0.2788614332675934,0.0,9.69084590352054e-10,0.0,2.8956967071280815e-05
AB_CF,ECG200,64,0,1,0.5724,0.9062,0.9,7.3764,2.8469,1.5206,1.0,0.5896245241165161,1.0,0.9999717473983765,1.0,0.92222660779953,0.0,0.0002466797595843673,1.0,0.6578264832496643,1.0,0.9998832941055298,1.0,0.932974636554718,0.0,4.012264616903849e-05,1.0,0.8734533786773682,1.0,0.9990524649620056,1.0,0.7561193704605103,0.0,1.520585374237271e-05,0.0,0.17832835018634796,1.0,0.995998740196228,1.0,0.9496086239814758,0.0,1.0396494872111361e-05,0.0,0.00144001969601959,1.0,0.9916568994522095,1.0,0.9968785047531128,0.0,6.46662556391675e-06,0.0,0.1797952950000763,1.0,0.9830448627471924,1.0,0.9999665021896362,0.0,4.053990323882317e-06,0.0,5.399643214332173e-06,1.0,0.9648996591567993,1.0,0.9999996423721313,0.0,2.8734330044244416e-06,0.0,2.1262489099171944e-05,1.0,0.9353035092353821,1.0,0.9999996423721313,0.0,3.8133766793180257e-06,0.0,7.971647573867813e-05,1.0,0.8944647312164307,1.0,0.9999998807907104,0.0,9.485047485213727e-06,0.0,1.3918984853589222e-09,1.0,0.8355018496513367,1.0,1.0,0.0,3.6753626773133874e-05,0.0,3.6232666172919537e-12,1.0,0.8078466057777405,1.0,1.0,0.0,0.0001486608962295577
AB_CF,ECG200,68,1,0,0.3116,0.25,0.2,58.798,8.8748,2.6574,1.0,0.9999483823776245,0.0,0.0040959264151751995,1.0,0.8551343679428101,1.0,0.9999420642852783,1.0,0.99992835521698,0.0,0.002541083376854658,1.0,0.9290000200271606,1.0,0.9989691972732544,1.0,0.999909520149231,0.0,0.0023137819953262806,0.0,0.002268941840156913,1.0,0.9869396686553955,1.0,0.9999005794525146,0.0,0.002446342958137393,0.0,0.01724252663552761,1.0,0.8185205459594727,1.0,0.9999973773956299,0.0,0.0034711635671555996,0.0,1.0331259403528747e-07,0.0,0.07265885174274445,1.0,0.9999996423721313,0.0,0.0073772007599473,0.0,3.3980279567913385e-06,0.0,0.002129183616489172,1.0,1.0,0.0,0.022923169657588005,0.0,2.9170854176641114e-08,0.0,0.000200163820409216,1.0,1.0,0.0,0.0887516438961029,0.0,1.2566075957565204e-09,0.0,3.349768303451128e-05,1.0,0.9999998807907104,0.0,0.2847164273262024,0.0,1.4999666005793832e-12,0.0,9.101264367927797e-06,1.0,1.0,1.0,0.6369795799255371,0.0,2.1237664404871737e-11,0.0,6.529144684463972e-06,1.0,1.0,1.0,0.8949406743049622,0.0,1.2585982603341428e-13,0.0,3.8095890886324923e-06
AB_CF,ECG200,75,0,1,0.5811,0.7396,0.7,7.7639,1.7963,0.6494,1.0,0.9561955332756042,1.0,0.9998916387557983,1.0,0.8188402652740479,0.0,0.0025346579495817423,1.0,0.9257574081420898,1.0,0.9976703524589539,1.0,0.7315468788146973,0.0,0.0002621168387122452,1.0,0.9496787190437317,1.0,0.9890249371528625,1.0,0.9982993006706238,0.0,0.00010036751336883754,0.0,0.0863347053527832,1.0,0.9472723007202148,0.0,0.35092511773109436,0.0,9.520342428004369e-05,0.0,1.9198729205527343e-05,1.0,0.6755601167678833,1.0,0.9999294281005859,0.0,0.00013399796443991363,0.0,2.3354388645202562e-07,0.0,0.1661742478609085,1.0,0.9999840259552002,0.0,0.0002494326909072697,0.0,0.00012503095786087215,0.0,0.03488336130976677,1.0,0.999976396560669,0.0,0.0006689420551992953,0.0,4.6435462763838586e-07,0.0,0.015982795506715775,1.0,0.9999990463256836,0.0,0.002326003508642316,0.0,2.227575901514456e-09,0.0,0.009591614827513695,1.0,1.0,0.0,0.008491335436701775,0.0,7.298505688702051e-10,0.0,0.008342323824763298,1.0,1.0,0.0,0.026733029633760452,0.0,4.627169415856447e-13,0.0,0.006315190810710192,1.0,1.0,0.0,0.06987415999174118
AB_CF,ECG200,57,0,1,0.7178,0.625,0.6,19.0474,3.8898,1.5287,1.0,0.9597384333610535,1.0,0.9999921321868896,1.0,0.5489200353622437,0.0,6.421443686122075e-05,1.0,0.9711245894432068,1.0,0.9999735355377197,0.0,0.25782471895217896,0.0,2.0753399439854547e-05,1.0,0.8685280084609985,1.0,0.9998785257339478,0.0,0.2675892114639282,0.0,1.543688449601177e-05,1.0,0.9509634971618652,1.0,0.9987442493438721,1.0,0.9992701411247253,0.0,2.2448450181400403e-05,0.0,0.0006352448253892362,1.0,0.9872109889984131,1.0,0.9645348787307739,0.0,5.465074355015531e-05,0.0,0.0009392938809469342,1.0,0.9162153005599976,1.0,0.9952151775360107,0.0,0.000110806999146007,0.0,6.6398865783412475e-06,1.0,0.6487862467765808,1.0,0.9999916553497314,0.0,0.00018747145077213645,0.0,1.2618132132047322e-05,0.0,0.3614615797996521,1.0,0.9999973773956299,0.0,0.00033238905598409474,0.0,2.9022186254223925e-07,0.0,0.22523461282253265,1.0,0.9999929666519165,0.0,0.0006644182140007615,0.0,1.3615815142031806e-08,0.0,0.1384105235338211,1.0,1.0,0.0,0.0026741859037429094,0.0,6.995748164789761e-12,0.0,0.08679202944040298,1.0,1.0,0.0,0.026583032682538033
AB_CF,ECG200,99,1,0,0.3252,0.4375,0.4,56.476,9.8773,1.7346,1.0,0.9644762277603149,0.0,6.063757973606698e-05,1.0,0.6445745825767517,1.0,0.9938055276870728,1.0,0.9540375471115112,0.0,1.4111134078120813e-05,1.0,0.6774293780326843,1.0,0.8949593305587769,1.0,0.9818848967552185,0.0,7.757609637337737e-06,0.0,0.047013361006975174,0.0,0.21285872161388397,1.0,0.9967080354690552,0.0,9.654528184910305e-06,0.0,0.40665143728256226,0.0,0.012025216594338417,1.0,0.9888020753860474,0.0,2.0530487745418213e-05,0.0,0.1374496966600418,0.0,0.001324807875789702,1.0,0.9983129501342773,0.0,5.0217899115523323e-05,0.0,0.00617622584104538,0.0,0.00027720569050870836,1.0,0.9999996423721313,0.0,0.0001295857218792662,0.0,1.720153932183166e-06,0.0,9.167757525574416e-05,1.0,1.0,0.0,0.00047224073205143213,0.0,1.5761314671181026e-06,0.0,4.8365011025452986e-05,1.0,1.0,0.0,0.002570641692727804,0.0,1.7614007474797688e-10,0.0,2.554791899456177e-05,1.0,1.0,0.0,0.022713983431458473,0.0,3.3162150109289357e-11,0.0,1.6652817066642456e-05,1.0,1.0,0.0,0.2584059536457062,0.0,1.0020388963027926e-08,0.0,1.2407484064169694e-05
AB_CF,ECG200,17,1,0,0.3912,0.0729,0.0,70.8505,9.8926,1.4511,1.0,0.9855067729949951,0.0,0.006290331482887268,1.0,0.7616301774978638,1.0,0.9999121427536011,1.0,0.9620939493179321,0.0,0.001476856879889965,1.0,0.8545942902565002,1.0,0.9997724890708923,1.0,0.9962266683578491,0.0,0.0008304627845063806,1.0,0.8162715435028076,1.0,0.9991422891616821,1.0,0.9991422891616821,0.0,0.0010637580417096615,1.0,0.5492264032363892,1.0,0.9929637908935547,1.0,0.9999097585678101,0.0,0.0023289788514375687,0.0,0.0009025666513480246,1.0,0.9007762670516968,1.0,0.9999955892562866,0.0,0.005188769660890102,0.0,0.005801063030958176,0.0,0.465303897857666,1.0,0.9999992847442627,0.0,0.007583346217870712,0.0,5.569499080593232e-06,0.0,0.21118971705436707,1.0,0.9999998807907104,0.0,0.017612332478165627,0.0,0.010837657377123833,0.0,0.111702099442482,1.0,1.0,0.0,0.04229454696178436,0.0,4.957773285241274e-07,0.0,0.07300321012735367,1.0,1.0,0.0,0.08170786499977112,0.0,6.604327307258018e-09,0.0,0.06596099585294724,1.0,1.0,0.0,0.1545487642288208,0.0,4.799542382451227e-13,0.0,0.07524040341377258
AB_CF,ECG200,93,1,0,0.3115,0.1562,0.1,56.3539,7.4274,1.987,1.0,0.9999922513961792,0.0,0.0036706742830574512,1.0,0.7702175974845886,1.0,0.9999819993972778,1.0,0.9999945163726807,0.0,0.0008301533525809646,1.0,0.5017253756523132,1.0,0.999671459197998,1.0,0.9999806880950928,0.0,0.00042036036029458046,0.0,0.006396456155925989,1.0,0.9929492473602295,1.0,0.9999892711639404,0.0,0.00039992103120312095,0.0,1.3238999599707313e-05,1.0,0.7850162386894226,1.0,0.9999997615814209,0.0,0.0007181758992373943,0.0,7.90196395428211e-07,0.0,0.09027500450611115,1.0,0.9999982118606567,0.0,0.0014262986369431019,0.0,2.9310325277975835e-09,0.0,0.007227400783449411,1.0,1.0,0.0,0.0038762029726058245,0.0,1.3299358281315676e-09,0.0,0.0023761210031807423,1.0,1.0,0.0,0.01780226267874241,0.0,1.559410656160054e-10,0.0,0.0009008559864014387,1.0,1.0,0.0,0.1470978707075119,0.0,8.489736913475099e-09,0.0,0.00057197519345209,1.0,1.0,1.0,0.7259271740913391,0.0,5.685548060997692e-13,0.0,0.0004805117496289313,1.0,1.0,1.0,0.9825494289398193,0.0,4.157954091709576e-13,0.0,0.00040219491347670555
AB_CF,ECG200,63,0,1,0.5892,0.9062,0.9,6.3242,2.2118,1.3584,1.0,0.6889156103134155,1.0,0.999995231628418,1.0,0.9675452709197998,0.0,0.00012156935554230586,0.0,0.4519776701927185,1.0,0.9999710321426392,1.0,0.9525513052940369,0.0,4.274742605048232e-05,0.0,0.25273123383522034,1.0,0.9998012185096741,1.0,0.9102020859718323,0.0,4.030088894069195e-05,0.0,0.21620430052280426,1.0,0.9985309839248657,1.0,0.9987119436264038,0.0,9.042926831170917e-05,0.0,0.0014640779700130224,1.0,0.9918375611305237,1.0,0.9899014234542847,0.0,0.00024048163322731853,0.0,8.658316073706374e-05,1.0,0.9753402471542358,1.0,0.9996166229248047,0.0,0.00070181954652071,0.0,0.0003223996318411082,1.0,0.966254711151123,1.0,1.0,0.0,0.0017088813474401832,0.0,3.6655487534176245e-09,1.0,0.9295446872711182,1.0,1.0,0.0,0.0038283823523670435,0.0,2.940011845087298e-10,1.0,0.7150552272796631,1.0,1.0,0.0,0.008498110808432102,0.0,8.095341286207258e-09,0.0,0.26262006163597107,1.0,1.0,0.0,0.019260376691818237,0.0,2.555566652392982e-12,0.0,0.05934740602970123,1.0,1.0,0.0,0.042683232575654984
AB_CF,ECG200,0,1,0,0.3089,0.25,0.2,48.8325,7.3057,1.961,1.0,0.9999434947967529,0.0,0.019287485629320145,1.0,0.6160455942153931,1.0,0.999902606010437,1.0,0.9998799562454224,0.0,0.0032294210977852345,0.0,0.2949136197566986,1.0,0.99798583984375,1.0,0.9999667406082153,0.0,0.0009882516460493207,0.0,0.0008477667579427361,1.0,0.8724026679992676,1.0,0.9999943971633911,0.0,0.0005753046716563404,0.0,7.91147249401547e-05,0.0,0.05172095075249672,1.0,0.9999972581863403,0.0,0.0005043417331762612,0.0,1.9981682726211147e-06,0.0,0.0021900066640228033,1.0,0.9999293088912964,0.0,0.0008268203237093985,0.0,4.758690508310792e-08,0.0,0.00034660365781746805,1.0,1.0,0.0,0.0014253610279411077,0.0,7.782953170831775e-10,0.0,0.00011271340190432966,1.0,0.9999998807907104,0.0,0.0026623113080859184,0.0,2.8162208121074173e-09,0.0,5.6909542763605714e-05,1.0,1.0,0.0,0.004786280449479818,0.0,1.759428887304626e-11,0.0,4.30071959272027e-05,1.0,1.0,0.0,0.008484468795359135,0.0,2.840473412035749e-10,0.0,3.336333611514419e-05,1.0,1.0,0.0,0.01869915798306465,0.0,2.0903098130582937e-15,0.0,2.6641995646059513e-05
AB_CF,ECG200,38,0,1,0.6276,0.8125,0.8,4.079,1.0847,0.6779,1.0,0.9391595721244812,1.0,0.9980114698410034,1.0,0.9241381287574768,0.0,0.03825864568352699,1.0,0.8565994501113892,0.0,0.4634072184562683,1.0,0.9314366579055786,0.0,0.0003325633588247001,0.0,0.2618439495563507,0.0,0.0026561764534562826,1.0,0.9623475074768066,0.0,1.5497598724323325e-05,0.0,0.0027393638156354427,0.0,0.0005751903518103063,1.0,0.9999933242797852,0.0,6.5646268012642395e-06,0.0,1.7408801795681939e-06,0.0,0.00032753124833106995,1.0,0.9999991655349731,0.0,6.857651442260249e-06,0.0,2.1116953575983644e-05,0.0,0.00024761477834545076,1.0,0.9999991655349731,0.0,8.83531083673006e-06,0.0,3.125832370720616e-10,0.0,0.00015770776371937245,1.0,1.0,0.0,1.0774698239401914e-05,0.0,1.6707975003527054e-09,0.0,0.00015177085879258811,1.0,1.0,0.0,1.1588484994717874e-05,0.0,4.935038155906568e-09,0.0,0.000156380730913952,1.0,1.0,0.0,1.2547310689114965e-05,0.0,2.5106286949579115e-13,0.0,0.00016720604617148638,1.0,1.0,0.0,1.2669535863096826e-05,0.0,1.031397630333903e-14,0.0,0.00017884965927805752,1.0,1.0,0.0,1.328916823695181e-05
AB_CF,ECG200,39,0,1,0.7603,0.8125,0.8,5.8372,1.6394,0.6437,1.0,0.7327003479003906,1.0,0.9999817609786987,1.0,0.5102040767669678,0.0,7.166516297729686e-05,1.0,0.5542298555374146,1.0,0.999909520149231,0.0,0.47213199734687805,0.0,8.95560242497595e-06,1.0,0.7701870203018188,1.0,0.9993847608566284,0.0,0.20865744352340698,0.0,2.330566985619953e-06,1.0,0.9524640440940857,1.0,0.9954490065574646,1.0,0.8366252779960632,0.0,2.1526411728700623e-06,0.0,0.001551999943330884,1.0,0.9840096831321716,1.0,0.9999436140060425,0.0,3.666960310511058e-06,0.0,0.0003315045323688537,1.0,0.9678413271903992,1.0,0.9991973042488098,0.0,9.168482392851729e-06,0.0,0.0008577833650633693,1.0,0.9295479655265808,1.0,0.9999921321868896,0.0,3.570565604604781e-05,0.0,2.3243995173061194e-08,1.0,0.8507313132286072,1.0,0.9999996423721313,0.0,0.000189039739780128,0.0,2.3352901834527984e-09,1.0,0.7364125847816467,1.0,0.9999665021896362,0.0,0.0009575680596753955,0.0,1.1590794990468112e-09,1.0,0.5124618411064148,1.0,1.0,0.0,0.007043999154120684,0.0,5.110360512582471e-14,0.0,0.27048438787460327,1.0,1.0,0.0,0.061010878533124924
AB_CF,ECG200,70,1,0,0.466,0.1562,0.1,59.071,8.2586,2.6429,1.0,0.999777615070343,0.0,0.003717559389770031,1.0,0.9291477799415588,1.0,0.9999512434005737,1.0,0.9998733997344971,0.0,0.0005459506646730006,1.0,0.6956838369369507,1.0,0.9993765950202942,1.0,0.999961256980896,0.0,0.0002451812324579805,0.0,0.2089584767818451,1.0,0.9901812076568604,1.0,0.9994934797286987,0.0,0.00039663398638367653,0.0,2.365449836361222e-05,1.0,0.8071092963218689,1.0,0.9999867677688599,0.0,0.0021807255689054728,0.0,7.777477549097966e-06,0.0,0.23699048161506653,1.0,0.9999066591262817,0.0,0.014118252322077751,0.0,0.0012596636079251766,0.0,0.04094841703772545,1.0,0.9999997615814209,0.0,0.08266721665859222,0.0,6.387856910095024e-11,0.0,0.010694433934986591,1.0,1.0,0.0,0.3414587676525116,0.0,9.008145696043357e-08,0.0,0.0036842068657279015,1.0,1.0,1.0,0.7873814105987549,0.0,3.229591941100729e-11,0.0,0.0017613840755075216,1.0,1.0,1.0,0.9012265801429749,0.0,3.134740245158696e-10,0.0,0.0010929415002465248,1.0,1.0,1.0,0.9652948379516602,0.0,8.452147315374248e-11,0.0,0.0008280317997559905
AB_CF,ECG200,94,1,0,0.3737,0.8125,0.8,3.4591,1.0615,0.7809,1.0,0.8774134516716003,0.0,0.00011077362432843074,1.0,0.75938481092453,1.0,0.9999068975448608,1.0,0.7020676136016846,0.0,3.967254815506749e-05,1.0,0.8418276309967041,1.0,0.9997698664665222,1.0,0.8074420690536499,0.0,1.247098498424748e-05,1.0,0.7909237742424011,1.0,0.9993916749954224,1.0,0.7334684133529663,0.0,3.677375389088411e-06,1.0,0.6771402359008789,1.0,0.9983134269714355,1.0,0.9960344433784485,0.0,1.4891451201037853e-06,1.0,0.5140822529792786,1.0,0.9905744194984436,1.0,0.9966756105422974,0.0,1.0123782203663723e-06,0.0,3.562739220797084e-05,1.0,0.8817545175552368,1.0,0.9999696016311646,0.0,1.2016392929581343e-06,0.0,0.0005026135477237403,0.0,0.47258150577545166,1.0,0.9999991655349731,0.0,2.7927401333727175e-06,0.0,1.2591470976985875e-07,0.0,0.19966772198677063,1.0,1.0,0.0,9.49089189816732e-06,0.0,9.218766763297026e-07,0.0,0.10985340923070908,1.0,1.0,0.0,5.706485535483807e-05,0.0,2.233395912654146e-09,0.0,0.06665749102830887,1.0,1.0,0.0,0.0005378830246627331,0.0,6.331135438131241e-08,0.0,0.04886871576309204
AB_CF,ECG200,56,1,0,0.3527,0.3438,0.3,50.8118,9.2111,2.7447,1.0,0.9992038607597351,0.0,0.016847511753439903,1.0,0.9422200918197632,1.0,0.999782383441925,1.0,0.9991987347602844,0.0,0.0041791354306042194,1.0,0.8632519245147705,1.0,0.9968122839927673,1.0,0.9999725818634033,0.0,0.0018554406706243753,1.0,0.6083858013153076,1.0,0.9467419385910034,1.0,0.9999386072158813,0.0,0.0017747909296303988,0.0,0.002565305680036545,0.0,0.4199651777744293,1.0,0.9999986886978149,0.0,0.0029155989177525043,0.0,0.00036626256769523025,0.0,0.019964251667261124,1.0,0.99997878074646,0.0,0.005882616154849529,0.0,6.140609229987604e-07,0.0,0.001049103680998087,1.0,0.9999997615814209,0.0,0.012757662683725357,0.0,2.081412822008133e-05,0.0,9.702756506158039e-05,1.0,0.9999997615814209,0.0,0.02712257392704487,0.0,4.997104952053633e-10,0.0,1.4996432582847774e-05,1.0,1.0,0.0,0.07152517139911652,0.0,6.257683260457725e-09,0.0,3.77662058781425e-06,1.0,1.0,0.0,0.2817528247833252,0.0,9.219225860154778e-14,0.0,2.701895482459804e-06,1.0,1.0,1.0,0.7947481274604797,0.0,2.902651805979789e-14,0.0,1.7319000562565634e-06
AB_CF,ECG200,80,1,0,0.3171,0.3542,0.3,25.2282,4.5087,1.6747,1.0,0.9995244741439819,0.0,0.006174786016345024,1.0,0.9002072215080261,1.0,0.9999741315841675,1.0,0.9992245435714722,0.0,0.0007752566016279161,1.0,0.6511148810386658,1.0,0.999589741230011,1.0,0.9997096657752991,0.0,0.00027367574512027204,0.0,0.008861904963850975,1.0,0.9957192540168762,1.0,0.9999904632568359,0.0,0.00043203550740145147,0.0,0.009390434250235558,1.0,0.9583631157875061,1.0,0.9999114274978638,0.0,0.0015997939044609666,0.0,7.617714345542481e-06,1.0,0.6209020018577576,1.0,0.9999990463256836,0.0,0.010265534743666649,0.0,2.3442665053607925e-07,0.0,0.11637729406356812,1.0,0.9999991655349731,0.0,0.05922158062458038,0.0,4.310405810059592e-09,0.0,0.012025952339172363,1.0,1.0,0.0,0.2511873245239258,0.0,3.9185604094882365e-08,0.0,0.0011753321159631014,1.0,1.0,1.0,0.6670094132423401,0.0,7.24259109574632e-07,0.0,0.00023711856920272112,1.0,1.0,1.0,0.928629994392395,0.0,1.0888162997623775e-14,0.0,0.00010563485557213426,1.0,1.0,1.0,0.9837935566902161,0.0,3.2845606659850923e-13,0.0,2.9498747608158737e-05
AB_CF,ECG200,91,0,1,0.5807,0.8125,0.8,10.0121,2.4185,1.0388,1.0,0.9979828596115112,1.0,0.9999754428863525,1.0,0.9890139698982239,0.0,0.01270531490445137,1.0,0.9991061091423035,1.0,0.9985308647155762,1.0,0.9539366364479065,0.0,0.0003760808613151312,1.0,0.8653987646102905,1.0,0.8483996987342834,1.0,0.9999454021453857,0.0,0.000123882302432321,0.0,0.0027427137829363346,0.0,0.06446541845798492,1.0,0.9999992847442627,0.0,0.00047051956062205136,1.0,0.6714029908180237,0.0,0.003220063867047429,1.0,0.9999994039535522,0.0,0.006640213541686535,0.0,1.5378448381397902e-07,0.0,0.0005869102897122502,1.0,0.9999997615814209,0.0,0.16413414478302002,0.0,4.8848633582565526e-08,0.0,0.0003182943619322032,1.0,1.0,1.0,0.9318106770515442,0.0,1.3953175503900184e-08,0.0,0.0003346845624037087,1.0,1.0,1.0,0.9974442720413208,0.0,4.025114963557286e-11,0.0,0.0005159660358913243,1.0,1.0,1.0,0.9996457099914551,0.0,1.0112649433124954e-11,0.0,0.0006092695402912796,1.0,1.0,1.0,0.9998162388801575,0.0,4.771606795393648e-15,0.0,0.000636831799056381,1.0,1.0,1.0,0.9999150037765503
AB_CF,ECG200,88,1,0,0.3148,0.0625,0.0,83.4853,11.1119,1.6852,1.0,0.9963394403457642,0.0,0.010856883600354195,1.0,0.9855990409851074,1.0,0.9999877214431763,1.0,0.9961191415786743,0.0,0.0031902396585792303,1.0,0.9750112891197205,1.0,0.9999481439590454,1.0,0.9934616088867188,0.0,0.002301666885614395,1.0,0.9465327858924866,1.0,0.9997212290763855,1.0,0.9975547194480896,0.0,0.005526978522539139,1.0,0.5264348387718201,1.0,0.9960762858390808,1.0,0.9999573230743408,0.0,0.011607537977397442,1.0,0.7835953831672668,1.0,0.9775851368904114,1.0,0.9999986886978149,0.0,0.0338677279651165,0.0,0.0007631810149177909,1.0,0.916314959526062,1.0,0.9999977350234985,0.0,0.08292144536972046,0.0,2.626310561026912e-06,1.0,0.7870280146598816,1.0,1.0,0.0,0.16364003717899323,0.0,0.0016595070483163,1.0,0.6179711818695068,1.0,0.9999998807907104,0.0,0.18748179078102112,0.0,1.5028190247790008e-08,0.0,0.42041218280792236,1.0,1.0,0.0,0.2262488156557083,0.0,5.745747433394399e-09,0.0,0.2722455859184265,1.0,1.0,0.0,0.3118073344230652,0.0,2.438472757049226e-09,0.0,0.1947144716978073
AB_CF,ECG200,19,1,0,0.3076,0.25,0.2,31.5363,4.6912,2.2907,1.0,0.9886811971664429,0.0,0.0006185070378705859,1.0,0.9124027490615845,1.0,0.9999866485595703,1.0,0.9929597973823547,0.0,0.00016772963863331825,1.0,0.9320473670959473,1.0,0.9995825886726379,1.0,0.834709644317627,0.0,7.470390119124204e-05,0.0,0.476885586977005,1.0,0.9744359254837036,1.0,0.9993441700935364,0.0,6.396605022018775e-05,0.0,0.0029504604171961546,0.0,0.4071725904941559,1.0,0.9999852180480957,0.0,0.00011776637256843969,0.0,0.000182654956006445,0.0,0.02065519243478775,1.0,0.9999102354049683,0.0,0.00035510078305378556,0.0,0.000503823219332844,0.0,0.003089004894718528,1.0,0.9999995231628418,0.0,0.0016547777922824025,0.0,1.3661292541655712e-07,0.0,0.0008760464261285961,1.0,1.0,0.0,0.006414762698113918,0.0,6.056805057497172e-10,0.0,0.00036540254950523376,1.0,1.0,0.0,0.02288779243826866,0.0,3.4585275615617306e-11,0.0,0.00020475256314966828,1.0,1.0,0.0,0.11060553044080734,0.0,8.437361226354412e-11,0.0,0.00014083633141126484,1.0,1.0,1.0,0.55332350730896,0.0,5.230265005817802e-13,0.0,0.00012516982678789645
AB_CF,ECG200,65,0,1,0.5879,0.4375,0.4,35.0487,5.7721,1.5571,1.0,0.9382712841033936,1.0,0.9999781847000122,1.0,0.5284328460693359,0.0,5.09293022332713e-05,1.0,0.9617790579795837,1.0,0.9999462366104126,0.0,0.4999045729637146,0.0,1.2169210094725713e-05,1.0,0.9827441573143005,1.0,0.9998406171798706,1.0,0.5559511780738831,0.0,6.807043973822147e-06,1.0,0.6232567429542542,1.0,0.9993355870246887,1.0,0.9930330514907837,0.0,9.385404155182187e-06,0.0,0.4499659240245819,1.0,0.996062695980072,1.0,0.6847922205924988,0.0,3.4917302400572225e-05,0.0,0.46518614888191223,1.0,0.9612725973129272,1.0,0.9992801547050476,0.0,0.00021784496493637562,0.0,7.38185099180555e-06,1.0,0.6286909580230713,1.0,0.999998927116394,0.0,0.0011725537478923798,0.0,1.527145468571689e-05,0.0,0.10547928512096405,1.0,0.9999735355377197,0.0,0.007791483774781227,0.0,1.7153392946056556e-06,0.0,0.01648101583123207,1.0,1.0,0.0,0.13548873364925385,0.0,1.0875124445419715e-07,0.0,0.0045544360764324665,1.0,1.0,1.0,0.9051623940467834,0.0,1.1200826932622476e-09,0.0,0.0019252653000876307,1.0,1.0,1.0,0.9994291663169861
AB_CF,ECG200,47,1,0,0.2849,0.4479,0.4,17.9847,3.4827,0.9124,1.0,0.8011242151260376,0.0,7.026573439361528e-05,1.0,0.6177366971969604,1.0,0.9999183416366577,1.0,0.5571372509002686,0.0,4.7202400310197845e-05,1.0,0.5360227227210999,1.0,0.9999203681945801,1.0,0.9420284628868103,0.0,4.8384477850049734e-05,1.0,0.9259559512138367,1.0,0.9998952150344849,1.0,0.9730921387672424,0.0,7.811707473592833e-05,1.0,0.5466907620429993,1.0,0.9997361302375793,1.0,0.9682160019874573,0.0,0.00010832995758391917,1.0,0.9374859929084778,1.0,0.9988597631454468,1.0,0.9995632767677307,0.0,0.00012815424997825176,1.0,0.5706498026847839,1.0,0.9935031533241272,1.0,0.9999938011169434,0.0,0.00019333757518325,0.0,2.764669488897198e-07,1.0,0.9719052910804749,1.0,0.9999912977218628,0.0,0.00033268798142671585,0.0,3.153681745970971e-06,1.0,0.9097440242767334,1.0,1.0,0.0,0.0007386562065221369,0.0,6.969604271489516e-08,1.0,0.7376471161842346,1.0,1.0,0.0,0.00286166206933558,0.0,3.715407359550227e-08,0.0,0.411511093378067,1.0,1.0,0.0,0.036483701318502426,0.0,1.2790562012310325e-11,0.0,0.10921265929937363
AB_CF,ECG200,49,1,0,0.3221,0.0729,0.0,59.3046,8.5427,2.4317,1.0,0.9744904637336731,0.0,0.0001025569363264367,1.0,0.9589763283729553,1.0,0.999976634979248,1.0,0.9878202676773071,0.0,2.316468999197241e-05,1.0,0.9726213216781616,1.0,0.9997782111167908,1.0,0.9555354118347168,0.0,1.657660504861269e-05,1.0,0.9563071727752686,1.0,0.9987829327583313,1.0,0.9989603757858276,0.0,2.635930104588624e-05,1.0,0.7281560301780701,1.0,0.9942700862884521,1.0,0.9988250136375427,0.0,6.468891660915688e-05,0.0,0.024527443572878838,1.0,0.9678338766098022,1.0,0.9999982118606567,0.0,0.00015604095824528486,0.0,0.0011701966868713498,1.0,0.7745375037193298,1.0,1.0,0.0,0.0005512191564776003,0.0,2.5099275262618903e-06,0.0,0.4629214406013489,1.0,0.9999969005584717,0.0,0.002126909326761961,0.0,1.6773064714925567e-07,0.0,0.3033280074596405,1.0,1.0,0.0,0.00630189199000597,0.0,5.835881777827012e-10,0.0,0.24295370280742645,1.0,1.0,0.0,0.01710340939462185,0.0,5.942378145107341e-09,0.0,0.29287412762641907,1.0,1.0,0.0,0.052499763667583466,0.0,1.815855799058852e-09,0.0,0.2943613529205322
AB_CF,ECG200,7,1,0,0.3551,0.1562,0.1,25.8509,3.622,1.4562,1.0,0.998928964138031,0.0,0.010383046232163906,1.0,0.5407878160476685,1.0,0.999875545501709,1.0,0.9995612502098083,0.0,0.002170504303649068,1.0,0.5348566770553589,1.0,0.9928199648857117,1.0,0.9999643564224243,0.0,0.0008161129662767053,0.0,0.016053879633545876,1.0,0.8722719550132751,1.0,0.9999934434890747,0.0,0.0005150554934516549,0.0,0.00011609899229370058,0.0,0.2973460555076599,1.0,0.9999552965164185,0.0,0.0004711541987489909,0.0,5.062629497842863e-07,0.0,0.03903692215681076,1.0,0.9999996423721313,0.0,0.00039640945033170283,0.0,3.576604257204963e-08,0.0,0.00802595168352127,1.0,0.9999992847442627,0.0,0.0004714906681329012,0.0,6.392129492382992e-09,0.0,0.0023642471060156822,1.0,0.9999998807907104,0.0,0.0009423453011550009,0.0,2.9775287790911875e-10,0.0,0.0011592551600188017,1.0,1.0,0.0,0.001715680817142129,0.0,6.972975530317171e-10,0.0,0.0010382081381976604,1.0,1.0,0.0,0.00457837525755167,0.0,3.7560212717835384e-08,0.0,0.0009991880506277084,1.0,1.0,0.0,0.028869504109025,0.0,7.896737951040844e-12,0.0,0.0011670052772387862
AB_CF,ECG200,97,0,1,0.6322,0.625,0.6,27.5955,5.2219,1.2704,1.0,0.9616321921348572,1.0,0.9999897480010986,1.0,0.5060687065124512,0.0,0.00020459156075958163,1.0,0.9952990412712097,1.0,0.9999383687973022,0.0,0.400240957736969,0.0,1.2090711607015692e-05,1.0,0.9778459668159485,1.0,0.9996020197868347,1.0,0.6489242911338806,0.0,3.1273882541427156e-06,1.0,0.8559937477111816,1.0,0.9954785704612732,1.0,0.9884850978851318,0.0,4.116413492738502e-06,0.0,0.036843035370111465,1.0,0.9706677794456482,1.0,0.9840688109397888,0.0,1.36981188916252e-05,0.0,0.0482935830950737,1.0,0.8181488513946533,1.0,0.9976886510848999,0.0,5.24381612194702e-05,0.0,6.418633802240947e-06,0.0,0.4756653904914856,1.0,0.9999969005584717,0.0,0.00012692158634308726,0.0,7.897897802422449e-08,0.0,0.23700274527072906,1.0,0.9999986886978149,0.0,0.00026027203421108425,0.0,1.2665211215789896e-05,0.0,0.14796319603919983,1.0,1.0,0.0,0.0005472680204547942,0.0,5.490678134378868e-09,0.0,0.0986378937959671,1.0,1.0,0.0,0.0013927096733823419,0.0,1.0394365489857504e-12,0.0,0.05373222753405571,1.0,1.0,0.0,0.005128680262714624
AB_CF,ECG200,59,0,1,0.5788,0.7188,0.7,16.818,3.7061,1.4896,1.0,0.9123829007148743,1.0,0.9999715089797974,1.0,0.5160319209098816,0.0,3.5116194339934736e-05,1.0,0.8858386874198914,1.0,0.9998714923858643,0.0,0.30143237113952637,0.0,8.533127584087197e-06,1.0,0.9719860553741455,1.0,0.9988441467285156,1.0,0.9876755475997925,0.0,8.12696453067474e-06,1.0,0.9157841205596924,1.0,0.9853495955467224,1.0,0.9969702959060669,0.0,3.575554001145065e-05,0.0,0.11714582145214081,1.0,0.8946797847747803,1.0,0.9908878803253174,0.0,0.00020440865773707628,0.0,0.0005918132956139743,1.0,0.6109341382980347,1.0,0.9999843835830688,0.0,0.000922054925467819,0.0,1.4618844943470322e-05,0.0,0.34229108691215515,1.0,0.9981599450111389,0.0,0.0035681736189872026,0.0,2.443036919430597e-07,0.0,0.20652860403060913,1.0,0.9999998807907104,0.0,0.01927972584962845,0.0,0.0007614752394147217,0.0,0.1142149418592453,1.0,1.0,0.0,0.16207699477672577,0.0,6.193307672264226e-11,0.0,0.05838622525334358,1.0,1.0,1.0,0.8263015747070312,0.0,2.105639013844085e-12,0.0,0.027778515592217445,1.0,1.0,1.0,0.9939051270484924
AB_CF,ECG200,95,1,0,0.3484,0.3438,0.3,24.5526,4.0218,1.4588,1.0,0.9991293549537659,0.0,0.002446028869599104,1.0,0.8484684228897095,1.0,0.999944806098938,1.0,0.9932401180267334,0.0,0.00017212408420164138,0.0,0.41068005561828613,1.0,0.99922776222229,1.0,0.9984604120254517,0.0,1.822434387577232e-05,0.0,0.061478544026613235,1.0,0.9915404915809631,1.0,0.9999791383743286,0.0,4.469917712413007e-06,0.0,0.008400441147387028,1.0,0.9002068638801575,1.0,0.9999911785125732,0.0,2.621581188577693e-06,0.0,0.00014930669567547739,0.0,0.4286258816719055,1.0,0.9999953508377075,0.0,2.7321027573634638e-06,0.0,1.5185972188191954e-05,0.0,0.07357605546712875,1.0,0.9999984502792358,0.0,3.4460365441191243e-06,0.0,7.76430078985868e-06,0.0,0.013994410634040833,1.0,1.0,0.0,4.374925083538983e-06,0.0,3.2598986010601294e-11,0.0,0.0024611647240817547,1.0,1.0,0.0,6.342935648717685e-06,0.0,1.7602093116408923e-09,0.0,0.0007320863078348339,1.0,1.0,0.0,1.0287708391842898e-05,0.0,4.531137964836063e-11,0.0,0.00032729774829931557,1.0,1.0,0.0,2.1478515918715857e-05,0.0,1.5714545983924744e-11,0.0,8.805628749541938e-05
AB_CF,ECG200,13,0,1,0.6101,0.5312,0.5,20.99,3.6601,1.1946,1.0,0.997139573097229,1.0,0.9999953508377075,1.0,0.6611841320991516,0.0,6.319170643109828e-05,1.0,0.9973108768463135,1.0,0.9999842643737793,0.0,0.3986995816230774,0.0,2.513105391699355e-05,1.0,0.9901031255722046,1.0,0.9999585151672363,1.0,0.746433675289154,0.0,1.810514550015796e-05,1.0,0.6065951585769653,1.0,0.999881386756897,1.0,0.9803378582000732,0.0,2.1439795091282576e-05,0.0,0.031538769602775574,1.0,0.9995261430740356,1.0,0.9964148998260498,0.0,2.8978431146242656e-05,0.0,3.4647069696802646e-05,1.0,0.9961665272712708,1.0,0.9990721940994263,0.0,3.411732177482918e-05,0.0,0.0016850195825099945,1.0,0.9406312704086304,1.0,0.9902727007865906,0.0,3.270192246418446e-05,0.0,6.178438383130924e-08,0.0,0.4404115080833435,1.0,0.999997615814209,0.0,3.8832848076708615e-05,0.0,1.2429595699359197e-05,0.0,0.1056075319647789,1.0,1.0,0.0,7.148701115511358e-05,0.0,7.345853703100147e-09,0.0,0.029706424102187157,1.0,1.0,0.0,0.00022470971453003585,0.0,5.113063835174292e-13,0.0,0.011448935605585575,1.0,1.0,0.0,0.0013176968786865473
AB_CF,ECG200,27,1,0,0.3391,0.1562,0.1,51.6072,7.5895,1.5164,1.0,0.9947973489761353,0.0,0.001830250141210854,1.0,0.7233824729919434,1.0,0.9997707009315491,1.0,0.9897372126579285,0.0,0.00033294755849055946,1.0,0.7235510945320129,1.0,0.9993539452552795,1.0,0.9425264596939087,0.0,0.00020929398306179792,0.0,0.26114964485168457,1.0,0.9978725910186768,1.0,0.9849165081977844,0.0,0.00044721970334649086,0.0,0.43067988753318787,1.0,0.9926734566688538,1.0,0.9987701773643494,0.0,0.0013752012746408582,0.0,0.1291867047548294,1.0,0.9430228471755981,1.0,0.9999955892562866,0.0,0.002366443630307913,0.0,0.0436929315328598,0.0,0.4989764988422394,1.0,0.9999908208847046,0.0,0.0027833301573991776,0.0,0.00010535338515182957,0.0,0.13330739736557007,1.0,0.9999984502792358,0.0,0.0037926340010017157,0.0,2.248344088684462e-07,0.0,0.0851597785949707,1.0,0.9999985694885254,0.0,0.006837907712906599,0.0,4.672068287803199e-10,0.0,0.0802154541015625,1.0,1.0,0.0,0.017520012333989143,0.0,2.6483613080330315e-09,0.0,0.08422914147377014,1.0,1.0,0.0,0.055711179971694946,0.0,4.1894559267619035e-16,0.0,0.09292374551296234
AB_CF,ECG200,9,0,1,0.671,0.7188,0.7,12.3004,2.8522,1.2308,1.0,0.9663264155387878,1.0,0.999966025352478,1.0,0.6124619245529175,0.0,8.104998414637521e-05,1.0,0.9947577118873596,1.0,0.9999146461486816,0.0,0.17045487463474274,0.0,1.1652348803181667e-05,1.0,0.9553400874137878,1.0,0.9998044371604919,1.0,0.5300675630569458,0.0,4.000849003205076e-06,1.0,0.9362621307373047,1.0,0.9989423155784607,1.0,0.9482647776603699,0.0,4.170866759523051e-06,0.0,0.010362902656197548,1.0,0.9826541543006897,1.0,0.997689962387085,0.0,8.9162813310395e-06,0.0,1.668890763539821e-05,1.0,0.8387542963027954,1.0,0.99992835521698,0.0,1.5092861758603249e-05,0.0,0.008450795896351337,1.0,0.5580289959907532,1.0,0.9999986886978149,0.0,2.34637063840637e-05,0.0,2.2162716959428508e-06,0.0,0.39735788106918335,1.0,0.9994862079620361,0.0,5.8692487073130906e-05,0.0,6.35538427440352e-11,0.0,0.23320135474205017,1.0,0.9999998807907104,0.0,0.0002084736042888835,0.0,2.6381932662772334e-12,0.0,0.131036639213562,1.0,1.0,0.0,0.001344085088931024,0.0,4.755520521641798e-13,0.0,0.10034913569688797,1.0,1.0,0.0,0.01737923175096512
AB_CF,ECG200,16,1,0,0.3142,0.0729,0.0,53.8673,7.0437,1.9699,1.0,0.9998624324798584,0.0,0.08545458316802979,1.0,0.7803352475166321,1.0,0.9996106028556824,1.0,0.9997933506965637,0.0,0.022390099242329597,1.0,0.5111321806907654,1.0,0.9916582703590393,1.0,0.9999569654464722,0.0,0.007056902162730694,0.0,0.0072452169843018055,1.0,0.8813623189926147,1.0,0.9999340772628784,0.0,0.0034799398854374886,0.0,0.34856194257736206,0.0,0.23025727272033691,1.0,0.9999909400939941,0.0,0.002102446276694536,0.0,0.02081727609038353,0.0,0.009369224309921265,1.0,0.9999988079071045,0.0,0.0016129091382026672,0.0,0.00048122293082997203,0.0,0.0013580123195424676,1.0,0.9999996423721313,0.0,0.0018367681186646223,0.0,1.8938152379632811e-06,0.0,0.0004463781078811735,1.0,1.0,0.0,0.002750069135800004,0.0,6.6314909119569165e-09,0.0,0.00024752510944381356,1.0,1.0,0.0,0.007096884772181511,0.0,2.843372065575167e-11,0.0,0.0001775948767317459,1.0,1.0,0.0,0.02177709899842739,0.0,1.0950013518140622e-07,0.0,0.00015858796541579068,1.0,1.0,0.0,0.04472691938281059,0.0,1.1370879793304312e-09,0.0,0.00013968374696560204
AB_CF,ECG200,60,0,1,0.585,0.9062,0.9,6.0717,2.0385,0.8469,1.0,0.9932589530944824,1.0,0.9999638795852661,1.0,0.7170747518539429,0.0,0.0010769683867692947,1.0,0.9693089723587036,1.0,0.9989571571350098,1.0,0.9424654841423035,0.0,0.0001451012649340555,1.0,0.8871873021125793,1.0,0.9716101288795471,1.0,0.9726384878158569,0.0,0.00018972808902617544,0.0,0.001433365629054606,1.0,0.5495366454124451,1.0,0.9999469518661499,0.0,0.0013026677770540118,0.0,2.87012844637502e-05,0.0,0.06385178864002228,1.0,0.9999992847442627,0.0,0.02716115303337574,0.0,1.496266399669821e-08,0.0,0.007180977147072554,1.0,1.0,1.0,0.7884665727615356,0.0,1.1184591386381726e-07,0.0,0.0016780018340796232,1.0,1.0,1.0,0.9965333938598633,0.0,1.496150703328425e-10,0.0,0.0009714248008094728,1.0,1.0,1.0,0.9998630285263062,0.0,8.105955143222765e-13,0.0,0.0007933446322567761,1.0,1.0,1.0,0.9999803304672241,0.0,1.3747615784480416e-13,0.0,0.0008023431873880327,1.0,1.0,1.0,0.9999901056289673,0.0,1.3274609710067775e-11,0.0,0.000867360970005393,1.0,1.0,1.0,0.9999923706054688
AB_CF,ECG200,15,1,0,0.303,0.7188,0.7,6.463,1.5283,0.7279,1.0,0.9829590320587158,0.0,0.0002085487503791228,1.0,0.5114325881004333,1.0,0.9999417066574097,1.0,0.9620887637138367,0.0,8.681655890541151e-05,1.0,0.589250922203064,1.0,0.999795138835907,1.0,0.9877453446388245,0.0,0.00010175065108342096,1.0,0.7851068377494812,1.0,0.9987114667892456,1.0,0.9568619728088379,0.0,0.0003323351847939193,1.0,0.6793838739395142,1.0,0.9821828007698059,1.0,0.9956142902374268,0.0,0.0018710375297814608,1.0,0.8725885152816772,1.0,0.7177456617355347,1.0,0.9999332427978516,0.0,0.012363208457827568,0.0,0.0007283269078470767,0.0,0.22036592662334442,1.0,0.9998000264167786,0.0,0.029996495693922043,0.0,7.073555963188483e-08,0.0,0.06924262642860413,1.0,0.9999997615814209,0.0,0.02698092721402645,0.0,3.8772220989358175e-09,0.0,0.025584647431969643,1.0,0.9999992847442627,0.0,0.03977389261126518,0.0,2.357297690380733e-10,0.0,0.00897736381739378,1.0,1.0,0.0,0.17008358240127563,0.0,7.105675076113371e-11,0.0,0.004771403502672911,1.0,1.0,1.0,0.7109423875808716,0.0,1.0869831510579298e-12,0.0,0.0024464151356369257
AB_CF,ECG200,14,0,1,0.5952,0.4375,0.4,59.0471,8.8015,4.4429,1.0,0.9999855756759644,1.0,0.9999998807907104,1.0,0.9705041646957397,0.0,8.886660361895338e-05,1.0,0.9999834299087524,1.0,0.9999997615814209,1.0,0.9482579827308655,0.0,2.6716770662460476e-05,1.0,0.9998761415481567,1.0,0.9999994039535522,1.0,0.9071516990661621,0.0,2.1374060452217236e-05,1.0,0.9995237588882446,1.0,0.9999979734420776,1.0,0.941257655620575,0.0,3.561852645361796e-05,1.0,0.9985539317131042,1.0,0.9999886751174927,1.0,0.9992256164550781,0.0,8.265488577308133e-05,0.0,0.4265457093715668,1.0,0.9999257326126099,1.0,0.9999936819076538,0.0,0.00016641110414639115,0.0,0.00039975024992600083,1.0,0.9995425939559937,1.0,0.9999986886978149,0.0,0.00028600014047697186,0.0,9.905605111271143e-06,1.0,0.9988372921943665,1.0,1.0,0.0,0.00036031444324180484,0.0,1.6687288280081702e-06,1.0,0.9982118606567383,1.0,0.9999998807907104,0.0,0.000501826056279242,0.0,4.063491210182235e-11,1.0,0.9975591897964478,1.0,1.0,0.0,0.0007820875034667552,0.0,4.768652694941977e-10,1.0,0.9967369437217712,1.0,1.0,0.0,0.0027697442565113306
AB_CF,ECG200,53,0,1,0.6031,0.1562,0.1,38.4514,5.1496,1.3813,1.0,0.9888335466384888,1.0,0.9999847412109375,1.0,0.5185988545417786,0.0,3.1683524866821244e-05,1.0,0.9884399175643921,1.0,0.9999513626098633,1.0,0.6049745678901672,0.0,1.48681983773713e-05,1.0,0.8913718461990356,1.0,0.9998161196708679,0.0,0.20452101528644562,0.0,1.347736906609498e-05,1.0,0.7385254502296448,1.0,0.9989213943481445,1.0,0.9180233478546143,0.0,2.0870520529570058e-05,0.0,0.39225947856903076,1.0,0.9792439341545105,1.0,0.6833338141441345,0.0,5.090337435831316e-05,0.0,0.01618109457194805,1.0,0.5795795917510986,1.0,0.9999709129333496,0.0,0.0001211245617014356,0.0,0.0007805047789588571,0.0,0.10816894471645355,1.0,0.9973399043083191,0.0,0.0005279192700982094,0.0,7.790401213014775e-08,0.0,0.020582448691129684,1.0,1.0,0.0,0.002334889490157366,0.0,5.5619235439507975e-08,0.0,0.008648531511425972,1.0,0.9999964237213135,0.0,0.008061515167355537,0.0,7.026606518856227e-10,0.0,0.005539332050830126,1.0,1.0,0.0,0.031001582741737366,0.0,1.2462227430565243e-12,0.0,0.004309860058128834,1.0,1.0,0.0,0.13996200263500214
AB_CF,ECG200,79,1,0,0.3307,0.0625,0.0,48.2612,6.8184,2.3871,1.0,0.999964714050293,0.0,0.005307292100042105,1.0,0.704981803894043,1.0,0.9999347925186157,1.0,0.9999169111251831,0.0,0.0018654854502528906,1.0,0.81174635887146,1.0,0.9991532564163208,1.0,0.9999778270721436,0.0,0.0010404190979897976,0.0,0.0504712350666523,1.0,0.9934727549552917,1.0,0.9999710321426392,0.0,0.0012324173003435135,0.0,0.0007541020167991519,1.0,0.9562452435493469,1.0,0.9999892711639404,0.0,0.002238269429653883,0.0,0.0001765659253578633,1.0,0.6813156008720398,1.0,1.0,0.0,0.008171607740223408,0.0,1.3386802777404228e-07,0.0,0.17257200181484222,1.0,0.9999653100967407,0.0,0.03368734195828438,0.0,0.00017097854288294911,0.0,0.028171272948384285,1.0,1.0,0.0,0.1284070760011673,0.0,5.751375198315145e-08,0.0,0.005257339682430029,1.0,1.0,0.0,0.33086279034614563,0.0,2.4532667564081123e-12,0.0,0.001677336753346026,1.0,1.0,1.0,0.5532686710357666,0.0,6.72397693080029e-11,0.0,0.0006514231208711863,1.0,1.0,1.0,0.7967756390571594,0.0,3.949954241726922e-13,0.0,0.0002198774745920673
AB_CF,ECG200,87,0,1,0.604,0.3542,0.3,24.8641,3.9632,1.031,1.0,0.9662765264511108,1.0,0.999975323677063,1.0,0.5497612953186035,0.0,4.586478098644875e-05,1.0,0.9740327596664429,1.0,0.9999423027038574,0.0,0.43304720520973206,0.0,1.6235213479376398e-05,1.0,0.9891549944877625,1.0,0.9998552799224854,0.0,0.31922629475593567,0.0,1.0554092114034574e-05,0.0,0.3099243640899658,1.0,0.9993866682052612,0.0,0.015457128174602985,0.0,1.2767356565746013e-05,0.0,0.09194333106279373,1.0,0.9966666102409363,1.0,0.9045664072036743,0.0,2.1841891793883406e-05,0.0,0.00663753692060709,1.0,0.9789907932281494,1.0,0.9999533891677856,0.0,3.7426922062877566e-05,0.0,1.1765283488784917e-05,1.0,0.8919750452041626,1.0,0.9999922513961792,0.0,9.247745765605941e-05,0.0,1.1888878361787647e-05,1.0,0.7124581933021545,1.0,0.999998927116394,0.0,0.0003406497708056122,0.0,6.806219232657895e-08,1.0,0.5334603190422058,1.0,0.9999998807907104,0.0,0.0015831980854272842,0.0,1.7858750936405876e-11,0.0,0.41674545407295227,1.0,1.0,0.0,0.012080775573849678,0.0,2.3059631461264107e-12,0.0,0.3924641013145447,1.0,1.0,0.0,0.08042357116937637
AB_CF,ECG200,24,1,0,0.3184,0.1562,0.1,44.1877,6.7202,4.2086,1.0,0.9999933242797852,0.0,0.0010380225721746683,1.0,0.6999596357345581,1.0,0.9999904632568359,1.0,0.9999905824661255,0.0,0.0002356578770559281,0.0,0.38917043805122375,1.0,0.9996225833892822,1.0,1.0,0.0,0.0001973723847186193,0.0,0.01935839094221592,1.0,0.9794672131538391,1.0,1.0,0.0,0.000457096059108153,0.0,0.0002594774414319545,0.0,0.4281214475631714,1.0,1.0,0.0,0.003589611267670989,0.0,7.794190605636686e-05,0.0,0.014814469031989574,1.0,1.0,0.0,0.03800642117857933,0.0,8.521586636334177e-08,0.0,0.0014688987284898758,1.0,1.0,0.0,0.4598301649093628,0.0,5.397064128942475e-09,0.0,0.0003595420566853136,1.0,1.0,1.0,0.9434028267860413,0.0,9.267171208193759e-08,0.0,0.00015025174070615321,1.0,1.0,1.0,0.9960183501243591,0.0,2.2343201778757954e-13,0.0,8.444949344266206e-05,1.0,1.0,1.0,0.9997709393501282,0.0,2.001489425584868e-11,0.0,6.224685057532042e-05,1.0,1.0,1.0,0.9999803304672241,0.0,1.5513078086113082e-15,0.0,6.006328112562187e-05
AB_CF,ECG200,8,1,0,0.3012,0.3542,0.3,20.0018,3.5591,1.4487,1.0,0.9959772229194641,0.0,0.002709676744416356,1.0,0.850837767124176,1.0,0.9999610185623169,1.0,0.9872251152992249,0.0,0.00025103954249061644,1.0,0.7371597290039062,1.0,0.9994246959686279,1.0,0.9484578371047974,0.0,3.926814679289237e-05,0.0,0.21689043939113617,1.0,0.9934921860694885,1.0,0.9999988079071045,0.0,2.0867435523541644e-05,0.0,2.7266751203569584e-05,1.0,0.9287583827972412,1.0,0.9998706579208374,0.0,2.0882902390439995e-05,0.0,0.00010536042100284249,0.0,0.47260555624961853,1.0,0.9999998807907104,0.0,2.2224299755180255e-05,0.0,7.321607699850574e-05,0.0,0.06361979246139526,1.0,0.9999998807907104,0.0,3.7973641155986115e-05,0.0,2.6164201472056448e-08,0.0,0.0056318375281989574,1.0,1.0,0.0,0.00011117329995613545,0.0,3.9436709897699984e-08,0.0,0.0006052008830010891,1.0,1.0,0.0,0.00032191313221119344,0.0,2.177206193110237e-10,0.0,0.00013606123684439808,1.0,1.0,0.0,0.0012570081744343042,0.0,2.4332724724018817e-10,0.0,5.1227500080130994e-05,1.0,1.0,0.0,0.006577244494110346,0.0,8.773094230252187e-12,0.0,1.2544212040666025e-05
